-0.02357178
-0.09708435
-0.15828888
-0.20127747
-0.23808104
-0.26873044
-0.26539704
-0.26009001
-0.26077940
-0.26544556
-0.26809844
-0.26675810
-0.27139434
-0.28197753
-0.29449737
-0.30496490
-0.31538023
-0.32176330
-0.32413482
-0.32251431
-0.32090177
-0.32128720
-0.32167081
-0.31807250
-0.31250212
-0.30496978
-0.29349517
-0.28406799
-0.27468750
-0.26336426
-0.24811766
-0.22896728
-0.21190245
-0.20089294
-0.19590849
-0.20288877
-0.21381468
-0.21274566
-0.20372192
-0.19076354
-0.17587982
-0.16505064
-0.16820526
-0.17930388
-0.18835754
-0.19139586
-0.18247863
-0.16365630
-0.13895812
-0.12035309
-0.11179138
-0.11521241
-0.12458648
-0.13590362
-0.14318389
-0.14445800
-0.14373564
-0.15495696
-0.17209229
-0.18118192
-0.17828613
-0.16545439
-0.14671721
-0.13205384
-0.12542357
-0.12678649
-0.13411254
-0.13344206
-0.12282501
-0.10828094
-0.09380981
-0.08339081
-0.07899353
-0.08058869
-0.09411561
-0.11553528
-0.13485778
-0.14214354
-0.14541258
-0.13473540
-0.11416168
-0.08971100
-0.06140258
-0.01930542
0.01661102
0.05433776
0.08988617
0.11132630
0.11673980
0.12013611
0.11754547
0.11098785
0.10844268
0.10790039
0.09940124
0.08497437
0.06663941
0.03844635
0.00243378
-0.02941803
-0.05912109
-0.08071564
-0.09623199
-0.10570068
-0.11512237
-0.12648651
-0.14177428
-0.15499510
-0.16616027
-0.17328948
-0.17640318
-0.18348114
-0.19251373
-0.19752135
-0.19852354
-0.19156127
-0.18065338
-0.16980010
-0.16099090
-0.15421600
-0.15543518
-0.15067810
-0.12604491
-0.06770447
0.03014404
0.17128357
0.34554717
0.54281949
0.74109525
0.93240995
1.10684812
1.24459373
1.31001091
1.24973082
1.02657198
0.63139920
0.10089204
-0.49462251
-1.04536938
-1.45605254
-1.68359222
-1.73089432
-1.62472987
-1.40566635
-1.13794827
-0.86360836
-0.60457029
-0.38662748
-0.23146452
-0.14075714
-0.09627350
-0.08385223
-0.08542298
-0.09096589
-0.09051116
-0.08607849
-0.07370820
-0.06139953
-0.05313293
-0.04490753
-0.02876312
-0.01468933
-0.00665558
0.00133759
0.00929108
0.00725433
0.00124817
-0.00074768
0.00721588
0.01911987
0.03494415
0.04869964
0.06238616
0.07003417
0.07764435
0.08123597
0.08679992
0.09233581
0.09585419
0.09338471
0.09291779
0.09444336
0.09397095
0.09350097
0.09502320
0.10449829
0.12387573
0.15111663
0.18021117
0.20916013
0.23398406
0.24674437
0.24949066
0.24824309
0.24899170
0.25371673
0.26438810
0.28296632
0.30941131
0.33373441
0.35196564
0.36811554
0.38418517
0.40017423
0.41409330
0.41998257
0.41390285
0.40586333
0.39189422
0.37401459
0.36219451
0.36038360
0.35460174
0.34287872
0.33121428
0.31562805
0.29215974
0.26681885
0.23961455
0.20657622
0.17171324
0.13304473
0.09058929
0.05033660
0.01625519
-0.01964630
-0.05138793
-0.07700104
-0.10049591
-0.12387360
-0.14315428
-0.15835815
-0.17149658
-0.18257904
-0.19559631
-0.20854856
-0.21745605
-0.22432861
-0.23116667
-0.23200104
-0.23084106
-0.22968688
-0.23052856
-0.22937591
-0.23021881
-0.22707793
-0.22594268
-0.22680265
-0.22765870
-0.22652037
-0.22538757
-0.22028074
-0.22116913
-0.22205321
-0.21895294
-0.20790832
-0.19492919
-0.17604429
-0.16322417
-0.16041809
-0.16558593
-0.17669799
-0.18775451
-0.19079589
-0.17591185
-0.16309235
-0.14436707
-0.12175507
-0.10124634
-0.09875030
-0.09825683
-0.10572540
-0.11912658
-0.13445098
-0.14173889
-0.14103026
-0.13435516
-0.11776337
-0.09926453
-0.08682800
-0.08042388
-0.08002167
-0.08758178
-0.11102387
-0.12439849
-0.12775634
-0.13109741
-0.13243224
-0.11784027
-0.10929077
-0.11073426
-0.11018036
-0.10962952
-0.11107177
-0.11250641
-0.11194397
-0.11138428
-0.10684723
-0.09039277
-0.06805115
-0.04582062
-0.01972137
0.00823700
0.02809570
0.03790497
0.04567566
0.05141693
0.05713012
0.06082427
0.06848022
0.07609772
0.07969696
0.07531861
0.07295227
0.06661743
0.05434418
0.04014252
0.03198181
0.02386169
0.01578247
0.00973358
0.00371490
-0.01023376
-0.03406280
-0.08165252
-0.13497406
-0.18603879
-0.22490875
-0.24368407
-0.22853574
-0.20152311
-0.17265563
-0.15587248
-0.15310332
-0.16029753
-0.17342590
-0.19046905
-0.19747649
-0.20046904
-0.19946653
-0.19249938
-0.17561705
-0.16080870
-0.14209471
-0.10158417
-0.03341644
0.05829071
0.17341948
0.31583218
0.47942290
0.65811581
0.84387540
1.02671599
1.17879235
1.25050866
1.18853605
0.95374355
0.55097475
0.02087006
-0.55832457
-1.08089292
-1.44960870
-1.63141083
-1.64116373
-1.43196773
-1.14421784
-0.83999691
-0.55918731
-0.31560120
-0.20258331
-0.14187042
-0.12325073
-0.12064454
-0.11606110
-0.10553101
-0.08908355
-0.06475800
-0.04453430
-0.03635193
-0.03417999
-0.03400909
-0.03383880
-0.03167968
-0.02157135
-0.00554352
0.01438416
0.03023224
0.04202087
0.04380096
0.03164184
0.02551392
0.03135590
0.04114899
0.05487335
0.07250885
0.08010620
0.07970551
0.08129700
0.08288055
0.08843597
0.09396392
0.10145447
0.10492707
0.11037262
0.11778076
0.13311188
0.15035614
0.16950439
0.18656706
0.20354399
0.21645629
0.22930419
0.23611755
0.23692686
0.23972227
0.25046353
0.26712157
0.29364590
0.32202758
0.34827728
0.36842589
0.37653350
0.37664091
0.38072724
0.38280393
0.38486968
0.38891539
0.39294066
0.39097595
0.38703122
0.37912597
0.37325043
0.36541411
0.35960693
0.35382902
0.35205993
0.34233946
0.32470762
0.29920408
0.26984832
0.23068878
0.19371551
0.16289703
0.10636231
0.04414032
-0.01180023
-0.06547119
-0.11688385
-0.13818938
-0.14943878
-0.15466125
-0.15786833
-0.16304900
-0.17019377
-0.17929290
-0.19431669
-0.21125516
-0.22412872
-0.23096830
-0.22583343
-0.21674437
-0.20571074
-0.19274200
-0.17784850
-0.17297942
-0.17609466
-0.18118408
-0.18624816
-0.18730682
-0.19234038
-0.19535857
-0.19040191
-0.17950011
-0.17064270
-0.15386931
-0.13320006
-0.11661407
-0.10608123
-0.10157074
-0.10106292
-0.10055755
-0.10204467
-0.10551453
-0.10697662
-0.10843170
-0.10987976
-0.10933045
-0.10679352
-0.10028961
-0.09580811
-0.09731904
-0.10280213
-0.10626862
-0.11170685
-0.11512877
-0.11654297
-0.10999023
-0.10546051
-0.10493316
-0.10838837
-0.10784637
-0.11526733
-0.12265076
-0.12402740
-0.11942749
-0.12082002
-0.12220581
-0.12955443
-0.13885650
-0.14612244
-0.14539183
-0.13869506
-0.12407165
-0.11350128
-0.11293396
-0.12032928
-0.12768768
-0.13500945
-0.13632415
-0.13763273
-0.14291472
-0.14817047
-0.14145965
-0.12682249
-0.09235810
-0.04015655
0.00581421
0.02568512
0.02953674
0.02341888
0.01335175
0.01527496
0.03509857
0.05880279
0.08238861
0.09789672
0.09740722
0.09095002
0.08452546
0.06619263
0.03999176
0.01591187
-0.01600739
-0.05373749
-0.08729858
-0.11273194
-0.13405822
-0.15129821
-0.16646180
-0.18552947
-0.20848174
-0.23131926
-0.25205259
-0.26273224
-0.26141877
-0.25215177
-0.24691100
-0.24169616
-0.24048767
-0.24127533
-0.24404907
-0.23884887
-0.22571470
-0.21264617
-0.20561308
-0.20458526
-0.20953247
-0.21047453
-0.18952208
-0.13484466
-0.04860046
0.07104248
0.21396727
0.37408721
0.54733667
0.73166012
0.91506195
1.06371641
1.13401794
1.06864774
0.83445463
0.43029232
-0.09522888
-0.66190290
-1.16405332
-1.52240314
-1.70384111
-1.71522197
-1.59122586
-1.38028979
-1.12264859
-0.86430540
-0.63312392
-0.44886837
-0.31727385
-0.24404723
-0.21496703
-0.20593199
-0.20092253
-0.19991821
-0.19891876
-0.18598419
-0.17112395
-0.15832854
-0.13962676
-0.11305878
-0.09060334
-0.07622039
-0.06190918
-0.05164978
-0.04343139
-0.03326416
-0.01916779
-0.00514221
0.00483337
0.01077911
0.01271515
0.01862122
0.02250854
0.02239624
0.03621399
0.06190277
0.08547333
0.11489593
0.14616118
0.16135039
0.16651367
0.17563110
0.18470306
0.19969969
0.21661100
0.23343811
0.24819061
0.26088011
0.26952574
0.28608797
0.30853760
0.33087463
0.34912047
0.37125487
0.38332855
0.38539182
0.38943481
0.39544736
0.39944028
0.39943327
0.40340604
0.40138916
0.39540222
0.37551512
0.35174741
0.31814880
0.27675781
0.23159363
0.19859588
0.16775298
0.13905395
0.11049896
0.08009643
0.04586608
0.01777649
-0.00818207
-0.02605133
-0.03786102
-0.05359161
-0.06924378
-0.07884735
-0.09039337
-0.10188111
-0.10933197
-0.12271546
-0.13603179
-0.14331145
-0.15055510
-0.15179228
-0.14307372
-0.13638824
-0.13570648
-0.13502807
-0.14430297
-0.16149168
-0.17660400
-0.18368131
-0.18276305
-0.17189941
-0.15909972
-0.14636444
-0.13170228
-0.11512421
-0.10260834
-0.08617524
-0.07977448
-0.08136567
-0.08294891
-0.08452392
-0.08808136
-0.08167115
-0.08126281
-0.09279633
-0.09830230
-0.09383088
-0.08341156
-0.06309449
-0.03491882
-0.01285431
-0.00482971
-0.00480530
-0.00876160
-0.02463776
-0.04242492
-0.05415253
-0.05985198
-0.06154266
-0.05526489
-0.04702880
-0.04082366
-0.03862945
-0.03843658
-0.03824463
-0.03805358
-0.03786346
-0.04364410
-0.04342590
-0.03723877
-0.02909271
-0.01700714
-0.00299225
-0.00098694
-0.01292206
-0.02081726
-0.03464324
-0.04839996
-0.05412811
-0.05186737
-0.04961791
-0.04539001
-0.04317352
-0.04494750
-0.04671295
-0.04647949
-0.03629730
-0.01422546
0.01569550
0.04745697
0.07507996
0.09858459
0.11003174
0.11545135
0.12283418
0.13217009
0.13946900
0.15270172
0.15790802
0.15114837
0.13845275
0.12781035
0.11523132
0.10868500
0.11013153
0.10560089
0.08517273
0.05887664
0.03072235
-0.00127167
-0.03111542
-0.05483978
-0.07844574
-0.09596375
-0.11538391
-0.13271698
-0.13205351
-0.12542296
-0.11882629
-0.10629211
-0.09183074
-0.09933167
-0.10679535
-0.12019134
-0.12755035
-0.12890257
-0.12029786
-0.11770660
-0.11512787
-0.11256256
-0.09209960
-0.04188934
0.04787018
0.17300109
0.31740598
0.47501893
0.64179377
0.81370477
0.98674621
1.14897239
1.26262748
1.26427423
1.10074305
0.49027924
-0.05345215
-0.54471464
-0.91810102
-1.11848068
-0.86015806
-0.65088758
-0.46256313
-0.30901000
-0.19403503
-0.12341492
-0.08498779
-0.06267303
-0.05041961
-0.04618744
-0.03998627
-0.02585632
-0.00184723
0.02602204
0.04977172
0.06743287
0.07107574
0.05878052
0.04256653
0.03439362
0.03422150
0.04400054
0.06169067
0.07332244
0.08290588
0.09244110
0.10192872
0.11733856
0.13665192
0.15188872
0.16306946
0.16822419
0.16340270
0.16059599
0.16178283
0.16694396
0.17406950
0.18314909
0.19019317
0.19720214
0.20019621
0.20516510
0.21209959
0.22297880
0.24375395
0.27437529
0.30484313
0.32520904
0.33950316
0.34775571
0.35397706
0.36613707
0.39017639
0.41608552
0.43390502
0.44566588
0.44940733
0.44517059
0.44493436
0.45664000
0.47624630
0.50172543
0.52508664
0.53838133
0.53767971
0.51907134
0.48463592
0.44639282
0.40635070
0.36650907
0.32288634
0.28943204
0.26609466
0.25282409
0.24559020
0.24436216
0.22523009
0.19027404
0.14355285
0.09308502
0.04286957
0.00882538
-0.01111877
-0.02101318
-0.03284821
-0.03865356
-0.04642029
-0.05613830
-0.06779754
-0.07541870
-0.08300141
-0.08656616
-0.08812347
-0.08569275
-0.08327454
-0.08484803
-0.08641418
-0.08996215
-0.09946228
-0.11090515
-0.12030060
-0.12964904
-0.13099060
-0.12038574
-0.11182404
-0.10927491
-0.10673890
-0.10620545
-0.11363403
-0.11704590
-0.10850067
-0.09800812
-0.08955811
-0.07916046
-0.06881470
-0.06051056
-0.05622802
-0.05793701
-0.06361694
-0.07125916
-0.07687287
-0.07051849
-0.05822601
-0.04400482
-0.02786469
-0.01379547
-0.00974640
-0.00770752
-0.00965912
-0.01558105
-0.02545319
-0.03527587
-0.05300934
-0.07463440
-0.09416108
-0.10364013
-0.10312194
-0.08270629
-0.04647278
-0.00644043
0.01946197
0.03130462
0.03114807
0.02502228
0.02091705
0.02678223
0.04256835
0.06026580
0.07986450
0.09936493
0.11478791
0.12018402
0.11560333
0.10507507
0.09260955
0.08617675
0.08972596
0.10718719
0.12854125
0.14779876
0.15700988
0.15821471
0.14946379
0.13279631
0.10427246
0.06793091
0.02978119
-0.01215759
-0.05189666
-0.07750732
-0.09104981
-0.09656464
-0.09210206
-0.09164154
-0.09715332
-0.10860779
-0.12398499
-0.14525482
-0.16044860
-0.16760649
-0.16676849
-0.16394469
-0.15516509
-0.13050903
-0.08607666
-0.01798645
0.07961365
0.20657532
0.34683227
0.49633789
0.66499633
0.85072145
1.02556788
1.17964017
1.25931179
1.18336510
0.91078796
0.47639403
-0.07124786
-0.64600129
-1.13032102
-1.44505977
-1.58111438
-1.56723904
-1.43602285
-1.23780286
-1.01868379
-0.80066032
-0.59964704
-0.42948880
-0.30197114
-0.21290130
-0.16009674
-0.13342652
-0.12081940
-0.10827515
-0.09778381
-0.08734497
-0.07695832
-0.07259339
-0.07422059
-0.07583923
-0.07148010
-0.06117279
-0.04494690
-0.02880218
-0.02666809
-0.03250488
-0.03234252
-0.02422058
-0.00817963
0.02370148
0.06338287
0.08893586
0.10043121
0.10390930
0.10338959
0.09491241
0.08846771
0.08802520
0.09355499
0.09905731
0.10652191
0.11593933
0.12530945
0.13264311
0.14192992
0.15714019
0.17227416
0.17937285
0.18444609
0.18949340
0.19650603
0.20945341
0.23029601
0.25700438
0.28357939
0.31201143
0.34030151
0.36845002
0.39048795
0.41241545
0.42428312
0.42415189
0.41805081
0.40601043
0.39005036
0.37218017
0.35837950
0.34862730
0.34887452
0.35309996
0.35730469
0.35949797
0.35571045
0.34398193
0.32435212
0.29885039
0.26352570
0.22240812
0.17751586
0.13483856
0.09635406
0.06602234
0.04181244
0.02170349
0.00965485
-0.00034332
-0.01228119
-0.02216980
-0.03200897
-0.05373901
-0.07934021
-0.09685334
-0.11029908
-0.12367768
-0.13300932
-0.12836425
-0.12772247
-0.12708373
-0.12445862
-0.11985626
-0.12920714
-0.14050109
-0.15173888
-0.15893981
-0.16610473
-0.16925444
-0.16641814
-0.16558623
-0.16674834
-0.16790435
-0.16308500
-0.15629944
-0.14954771
-0.14482023
-0.13414642
-0.11954591
-0.10899810
-0.09850312
-0.09005066
-0.08761047
-0.09712249
-0.10658692
-0.11202423
-0.10748413
-0.09898651
-0.08456176
-0.07020905
-0.05592803
-0.04569824
-0.04546967
-0.04524231
-0.03904602
-0.03089050
-0.01879608
-0.00079193
0.00518189
-0.00081390
-0.00877014
-0.01867615
-0.02057251
-0.00852997
0.01340301
0.03124603
0.04103973
0.04282471
0.03465026
0.02054718
0.00651459
-0.00147797
0.00051910
0.01444641
0.03029419
0.05203278
0.08361237
0.12299439
0.16217925
0.20514862
0.23795256
0.25268280
0.24345917
0.22632172
0.20529022
0.19232391
0.18738220
0.18246520
0.16961302
0.15284484
0.13417053
0.11160950
0.08916138
0.06682587
0.04659149
0.02048828
-0.01543426
-0.04719665
-0.06686066
-0.08244659
-0.09795472
-0.10542480
-0.11484771
-0.12621368
-0.13752257
-0.13882476
-0.12818052
-0.10962952
-0.09117127
-0.07479553
-0.06248139
-0.05818908
-0.05590789
-0.05164856
-0.03348052
0.00250671
0.05821411
0.14150299
0.25621552
0.39821438
0.56736354
0.76949701
0.98852958
1.20049679
1.36563444
1.41452636
1.29004359
0.97315330
0.48869748
-0.10477570
-0.69528179
-1.18134522
-1.49383840
-1.61770954
-1.56584119
-1.38687217
-1.13914787
-0.86878242
-0.61369872
-0.39372010
-0.23653168
-0.12987914
-0.06355957
-0.02344177
-0.00541443
0.01451263
0.03036011
0.03816864
0.03598755
0.02983765
0.02968842
0.03351989
0.03932251
0.05106597
0.06474060
0.07436676
0.07598480
0.08157471
0.08713685
0.09068116
0.09022766
0.09574676
0.10322815
0.10868165
0.11211853
0.11752777
0.12888031
0.13818572
0.15739470
0.18446777
0.21339538
0.23421843
0.25294737
0.26561279
0.27224488
0.27884366
0.28341949
0.28797243
0.29250242
0.29900024
0.29949522
0.30595793
0.31636781
0.33269591
0.35292234
0.38299772
0.41292266
0.43473782
0.45047392
0.46215147
0.47377071
0.48931150
0.50278501
0.50823087
0.51961975
0.52697176
0.53229708
0.53958554
0.54285764
0.53019342
0.51361231
0.49313445
0.47872862
0.47434511
0.47993316
0.48350372
0.48307614
0.46872072
0.44647703
0.40842437
0.36061217
0.31104919
0.26969389
0.23252563
0.20549285
0.18655548
0.16771269
0.14100402
0.11243866
0.08202667
0.05375640
0.02761749
0.00558960
-0.016328.40397005
-0.80790987
-1.21580040
-1.62364158
-2.02944350
-2.04118680
-2.05287075
-2.05255651
-2.04030394
-2.02811241
-2.00404191
-1.97213191
-1.94635124
-1.93661956
-1.92693662
-1.91133203
-1.89580535
-1.87637624
-1.84908409
-1.82789907
-1.82273950
-1.82357578
-1.82241764
-1.81330537
-1.79428887
-1.76541748
-1.73470058
-1.71010675
-1.69558620
-1.68710842
-1.67867302
-1.67425966
-1.66190853
-1.63966917
-1.61356105
-1.58957300
-1.56172513
-1.53799653
-1.52035675
-1.50280513
-1.55698118
-1.61088619
-1.67248163
-1.74769926
-1.82254114
-1.82138843
-1.82422170
-1.82107057
-1.79604554
-1.76318502
-1.73048915
-1.69795656
-1.67354669
-1.66915893
-1.67872309
-1.69221949
-1.70166864
-1.69913053
-1.68864464
-1.68020143
-1.67578029
-1.66342124
-1.65510406
-1.64881896
-1.64057493
-1.62441196
-1.61827993
-1.61416840
-1.60808777
-1.59606719
-1.58808684
-1.58213653
-1.57820582
-1.57429466
-1.57239341
-1.56851139
-1.55469903
-1.51309537
-1.44384026
-1.39682126
-1.35003721
-1.31343722
-1.30488002
-1.32024562
-1.30568420
-1.28522610
-1.26287996
-1.23666536
-1.21257197
-1.20053923
-1.19851648
-1.19252407
-1.18258178
-1.17467892
-1.16084527
-1.13912105
-1.11949551
-1.10792779
-1.09840846
-1.08495664
-1.06759154
-1.05031371
-1.02715206
-1.00012636
-0.97522583
-0.96437950
-0.95358762
-0.93687953
-0.91627531
-0.89577388
-0.87139492
-0.84315824
-0.82302246
-0.80895719
-0.79695248
-0.77903776
-0.76121244
-0.74148616
-0.786875
-0.86750907
-0.88307161
-0.90651636
-0.93382349
-0.96099452
-0.82086944
-0.81278533
-0.80275144
-0.78878784
-0.77489404
-0.75708951
-0.73937406
-0.71975736
-0.70620846
-0.69272732
-0.67732357
-0.66199736
-0.58505735
-0.50054197
-0.41843934
-0.34470701
-0.27333374
-0.26997709
-0.27459716
-0.28118408
-0.29370818
-0.30616941
-0.31259856
-0.31302521
-0.30350036
-0.28009276
-0.25680234
-0.24158842
-0.22645018
-0.21934845
-0.22621154
-0.23901031
-0.24776520
-0.25448637
-0.17560362
-0.09512573
-0.01704041
0.04473480
0.09227112
0.05797973
0.02385986
-0.00212952
-0.02002869
-0.03783874
-0.07545929
-0.11687195
-0.17200775
-0.22487761
-0.26753327
-0.28808593
-0.30057525
-0.30902252
-0.31941711
-0.33573029
-0.35793151
-0.37604186
-0.38809170
-0.38416168
-0.38423063
-0.38628935
-0.39032804
-0.38638672
-0.39042448
-0.38051238
-0.35273954
-0.31913604
-0.28968048
-0.26435210
-0.25308041
-0.26773498
-0.29027616
-0.31270477
-0.32706143
-0.33537626
-0.33966948
-0.33996093
-0.34224119
-0.34848966
-0.35271728
-0.34498353
-0.34126858
-0.34553253
-0.34977478
-0.35001616
-0.35224606
-0.34650511
-0.33283233
-0.31922819
-0.31564238
-0.31406431
-0.31647398
-0.31887176
-0.31727752
-0.30773134
-0.29425230
-0.27885129
-0.26551697
-0.25622954
-0.25096864
-0.24971373
-0.24448516
-0.22734282
-0.20630614
-0.18736450
-0.16652770
-0.15176513
-0.14304625
-0.13437073
-0.12772917
-0.13306031
-0.14035521
-0.15159331
-0.16874573
-0.29327206
-0.49080595
-0.68337154
-0.87696466
-1.06162989
-1.12398159
-1.10642206
-1.09292995
-1.08348536
-1.08602786
-1.10248780
-1.11289548
-1.11927092
-1.11566460
-1.09814632
-1.05882561
-1.00378143
-0.93508262
-0.84483728
-0.72320313
-0.57232694
-0.38240539
-0.15363372
0.07996460
0.28453431
0.39057188
0.33687896
0.08644470
-0.33785767
-0.89336853
-1.46799159
-1.95616159
-2.28667068
-2.44239759
-2.42819571
-2.28670501
-2.07826161
-1.83703031
-1.59302482
-1.37809967
-1.12444913
-0.92579708
-0.78385829
-0.68043880
-0.59345669
-0.59446930
-0.58751707
-0.56467924
-0.53001589
-0.49552578
-0.47712831
-0.47076263
-0.47238888
-0.47798676
-0.48156704
-0.47517914
-0.46285305
-0.45257873
-0.57966585
-0.70213775
-0.82200679
-0.94525699
-1.07386076
-1.06849145
-1.06712889
-1.06378328
-1.05249452
-1.03131186
-1.00824546
-0.99325437
-0.98231811
-0.97740659
-0.97052946
-0.95970668
-0.93699827
-0.91042299
-0.87801084
-0.85770072
-0.84545221
-0.84321470
-0.65790863
-0.60486936
-0.69537472
-0.92472810
-1.25641465
-1.82126245
-2.24597597
-2.48548603
-2.53474879
-2.42456483
-2.21344208
-1.96357488
-1.70301723
-1.46764206
-1.27921378
-1.14346766
-1.05616021
-1.01505935
-0.99804410
-0.98708372
-0.97617826
-0.97129755
-0.96445112
-0.96360893
-0.96874084
-0.97185697
-0.96102771
-0.94826231
-0.92163085
-0.89115295
-0.86679716
-0.85251312
-0.83830051
-0.83410892
-0.82993831
-0.82180843
-0.81570949
-0.81362085
-0.83542289
-0.82527580
-0.81517972
-0.79319362
-0.76136779
-0.69786100
-0.67049164
-0.64723911
-0.62808284
-0.61499238
-0.60594725
-0.59296751
-0.57806272
-0.57318234
-0.57429652
-0.57938504
-0.58842830
-0.60140619
-0.61431941
-0.62716765
-0.64791226
-0.67452268
-0.70299010
-0.73131532
-0.76546869
-0.79348173
-0.80742435
-0.81333742
-0.81723098
-0.81513490
-0.80906934
-0.80502424
-0.79701919
-0.78109402
-0.76126861
-0.74353208
-0.73583464
-0.74011535
-0.75233488
-0.76648311
-0.73081083
-0.66347651
-0.59647917
-0.52782683
-0.46150784
-0.44328031
-0.44703397
-0.44081907
-0.42866482
-0.41060152
-0.39262845
-0.37673554
-0.36689207
-0.36704742
-0.36720242
-0.36735656
-0.36750946
-0.36368224
-0.34793365
-0.33226408
-0.31667299
-0.30314970
-0.28372404
-0.27633545
-0.27893371
-0.27952909
-0.27216153
-0.27080078
-0.26944670
-0.26212952
-0.25484893
-0.25755462
-0.26223692
-0.26291563
-0.25762114
-0.25036313
-0.23319122
-0.21610565
-0.20308501
-0.19808959
-0.21102905
-0.22788391
-0.24465484
-0.25139160
-0.24615447
-0.20711395
-0.14836822
-0.06603669
0.04374359
0.17486479
0.33120055
0.51262478
0.70906157
0.89456596
1.04730308
1.08385682
0.95107755
0.63389215
0.16904265
-0.11836273
-0.34065093
-0.44242768
-0.40041532
-0.23324308
-0.24401702
-0.25473692
-0.26341340
-0.26607666
-0.27071592
-0.27135224
-0.26402556
-0.26071562
-0.26538178
-0.27400481
-0.28258485
-0.28714200
-0.28968625
-0.29022793
-0.28280668
-0.27741270
-0.25413541
-0.22301483
-0.18209960
-0.14735899
-0.11876251
-0.11816864
-0.12155761
-0.12492980
-0.12032501
-0.09982330
-0.06748383
-0.03729645
-0.01322998
0.00872589
0.01863251
0.02450928
0.03433655
0.04411499
0.05185485
0.05358551
0.04137756
0.02326050
0.00324432
-0.01866180
-0.03647888
-0.05420654
-0.07980560
-0.11721649
-0.15842041
-0.20140807
-0.23622100
-0.25493988
-0.25764493
-0.25834684
-0.25705504
-0.25775969
-0.14105103
-0.02691559
0.09261902
0.21752562
0.21842803
0.10191558
-0.00605377
-0.10950348
-0.21243622
-0.19545378
-0.19248626
-0.19749389
-0.20048613
-0.19948363
-0.18853606
-0.16769348
-0.15093505
-0.14421050
-0.14746947
-0.15469206
-0.16187895
-0.16504943
-0.16422424
-0.16340301
-0.16258606
-0.16376280
-0.15697448
-0.15220947
-0.14746856
-0.13877135
-0.12613738
-0.12351684
-0.12488892
-0.12028473
-0.11769317
-0.12108490
-0.12843931
-0.12779723
-0.12317841
-0.12057220
-0.12195954
-0.11935944
-0.11876251
-0.12015900
-0.15736815
-0.12275146
-0.07636780
-0.03021576
0.01968506
0.10913666
0.13247101
0.13976867
0.13906981
0.12444458
0.10591248
0.09941284
0.10886566
0.13220121
0.15940001
0.17850310
0.17164093
0.13496277
0.07657776
0.01848480
-0.02339783
-0.05512054
-0.08270507
-0.10020172
-0.12756072
-0.18264282
-0.24938964
-0.30585265
-0.35606350
-0.38811306
-0.39612243
-0.39613156
-0.40211119
-0.41602082
-0.43782072
-0.45951170
-0.46517424
-0.46085844
-0.45457425
-0.44832091
-0.43015961
-0.42402858
-0.41792874
-0.40588898
-0.38395934
-0.37208952
-0.35629913
-0.34058775
-0.32694456
-0.32332000
-0.31573333
-0.30022490
-0.28678342
-0.28335938
-0.29587280
-0.32424345
-0.35446195
-0.36263976
-0.34888670
-0.28744232
-0.20640532
-0.12975341
-0.07338440
-0.02724762
-0.00522156
0.00873474
0.02063110
0.03246796
0.04225555
0.05000396
0.05970397
0.07930541
0.10278869
0.13013488
0.15933411
0.18042724
0.19146513
0.19846771
0.20742521
0.21036834
0.22125639
0.23607025
0.21498992
0.18804503
0.16322479
0.13653869
0.10998597
0.11938598
0.12674926
0.13407530
0.14136505
0.14662779
0.15584471
0.16899566
0.18009063
0.18118041
0.18425445
0.18930328
0.19830657
0.21124510
0.23605895
0.25875883
0.27537508
0.28394837
0.29247860
0.29897642
0.30942139
0.31981444
0.33214507
0.33645443
0.32880187
0.31322813
0.30370209
0.29820310
0.30069243
0.31709899
0.32944335
0.33177611
0.32016725
0.29667663
0.26534330
0.23615629
0.21109557
0.19014006
0.10162934
0.01953125
-0.05618652
-0.13152526
-0.20449798
-0.20347564
-0.21041808
-0.21732573
-0.22618927
-0.22704863
-0.22392334
-0.21285369
-0.19984954
-0.18492033
-0.17205566
-0.15726531
-0.14453887
-0.13386626
-0.14712677
-0.16032134
-0.17145934
-0.18254211
-0.19356901
-0.18066130
-0.16980804
-0.16298889
-0.15421416
-0.14548277
-0.13281555
-0.11424133
-0.09775024
-0.08731171
-0.07692504
-0.07256042
-0.07617736
-0.08176635
-0.07936768
-0.07499054
-0.06466553
-0.00265228
0.04512115
0.07673523
0.10620179
0.12756072
0.09508270
0.07271759
0.05245422
0.02433166
-0.00962005
-0.04340210
-0.07104523
-0.08859986
-0.09810700
-0.09363678
-0.09316864
-0.09867279
-0.11409912
-0.13143889
-0.14869140
-0.15789794
-0.16108856
-0.15630309
-0.15353178
-0.15674407
-0.15994018
-0.16312041
-0.16429505
-0.15949339
-0.14675598
-0.13806242
-0.13339202
-0.13670532
-0.14398162
-0.15918182
-0.16833586
-0.16550414
-0.16467680
-0.15788330
-0.14913391
-0.11654784
-0.09009522
-0.05780457
-0.02965546
0.00233276
0.00829102
0.01421967
0.02210846
0.02995758
0.03577789
0.04554901
0.05527130
0.06096496
0.05867004
0.05439697
0.05213501
0.05187439
0.05559509
0.07123719
0.09675079
0.11616699
0.12752623
0.13882874
0.14808471
0.15331420
0.16249754
0.17362518
0.18469725
0.19173337
0.19276489
0.19379089
0.19879211
0.21172790
0.22857940
0.25131652
0.27393982
0.29446015
0.30691771
0.32130310
0.32964658
0.33595824
0.34621856
0.35443756
0.24918487
0.12256927
-0.00341370
-0.13075684
-0.24950315
-0.25422546
-0.24101469
-0.23582944
-0.23863036
-0.24937713
-0.26206054
-0.26871032
-0.26537690
-0.25211026
-0.22696959
-0.18802459
-0.13534485
-0.06103790
0.04672699
0.18778350
0.35599455
0.55719451
0.78126859
1.00024199
1.17036068
1.23614895
1.13842833
0.84816589
0.38622495
-0.17489593
-0.73918132
-1.20512545
-1.50157976
-1.61347174
-1.56958446
-1.40253639
-1.17065393
-0.92401056
-0.69452071
-0.50398802
-0.28455841
-0.11398559
0.01593414
0.11734466
0.20829801
0.21521666
0.22608063
0.24286010
0.26154570
0.27814757
0.28670682
0.29323363
0.30370726
0.31611907
0.33244843
0.35068602
0.36684231
0.36500823
0.35522339
0.33951749
0.32389006
0.22675046
0.13407653
0.04186615
-0.04590332
-0.12726348
-0.12264740
-0.11208436
-0.09958404
-0.08714599
-0.07278015
-0.05848632
-0.04227386
-0.02216248
-0.00016144
0.01376953
0.02564087
0.03745270
0.04323547
0.04898925
0.06267426
0.08027099
0.34652984
0.62140712
0.84118003
0.94443416
0.89991207
0.46159238
-0.09393554
-0.66061582
-1.12695264
-1.42777800
-1.54600868
-1.50046873
-1.34172618
-1.12805747
-0.89754743
-0.67614989
-0.48371915
-0.33603057
-0.23485045
-0.16999633
-0.13730621
-0.12865966
-0.12204620
-0.11347626
-0.10693879
-0.09844421
-0.08402161
-0.07166168
-0.05936340
-0.04712677
-0.03694122
-0.02879639
-0.02467255
-0.01857910
-0.01450623
-0.01244354
-0.01238129
-0.00634949
0.00164215
-0.03020599
-0.04199493
-0.04974517
-0.06342620
-0.08499938
-0.06268433
-0.05839111
-0.06207916
-0.06176879
-0.05748016
-0.05321289
-0.04299682
-0.02288177
0.00111298
0.02299744
0.04278259
0.05848877
0.06814637
0.07576569
0.08533691
0.09884063
0.11227630
0.12365479
0.12701660
0.12439148
0.11580963
0.10528076
0.09480439
0.08637023
0.07996826
0.07160859
0.05732055
0.03713378
0.00709808
-0.02875763
-0.06642365
-0.09793183
-0.12132202
-0.13265563
-0.13796263
-0.13926268
-0.14055663
-0.13786376
-0.14712463
-0.15633911
-0.16948729
-0.18256987
-0.19757659
-0.20255889
-0.20552582
-0.20250823
-0.19353546
-0.18858795
-0.18764495
-0.19068664
-0.19371367
-0.19871490
-0.19772124
-0.18678253
-0.17191894
-0.16309966
-0.16029387
-0.15949218
-0.16267485
-0.16186156
-0.15707213
-0.15230681
-0.14955534
-0.14482758
-0.14410339
-0.14139312
-0.13471589
-0.12608215
-0.11550171
-0.10497406
-0.10046936
-0.09996705
-0.10344727
-0.11287994
-0.12027558
-0.11768403
-0.07729553
-0.03710907
0.00088654
0.03073212
0.05246856
0.03429626
0.01422455
-0.00574646
-0.02362762
-0.04539978
-0.06706268
-0.08662719
-0.10808410
-0.13142364
-0.15663665
-0.18172361
-0.20469512
-0.21362183
-0.21653349
-0.20948090
-0.20047361
-0.11390136
-0.02378174
0.06190734
0.13721801
0.21414184
0.21506133
0.20602600
0.20300598
0.21393065
0.22281095
0.22567687
0.22454862
0.21944580
0.20043852
0.18152618
0.16071867
0.13603515
0.10948486
0.07908722
0.04287200
-0.08868256
-0.21161894
-0.33792085
-0.45364103
-0.55883283
-0.56200866
-0.56118865
-0.54644255
-0.52978029
-0.51718139
-0.51061553
-0.51005229
-0.51148176
-0.51091427
-0.50835995
-0.49984817
-0.49137892
-0.49091215
-0.49243755
-0.49594540
-0.50341582
-0.51283874
-0.51624436
-0.51963329
-0.52300505
-0.52835006
-0.53366823
-0.53696990
-0.53428497
-0.52763319
-0.51703491
-0.50250959
-0.49601731
-0.50149750
-0.51490979
-0.52825517
-0.54551405
-0.55870633
-0.56188292
-0.55708355
-0.73737807
-0.58245143
-0.42431945
-0.27095794
-0.12234314
0.20860838
0.19960540
0.19064758
0.18571378
0.18080534
0.18189146
0.18496215
0.18403747
0.18112701
0.18619138
0.18725036
0.19228424
0.19928253
0.20226624
0.19528503
0.18634886
0.17944700
0.17457001
0.17369720
0.18277862
0.19181456
0.19881529
0.20379149
0.20277252
0.19578857
0.19082976
0.18788574
0.18495605
0.18801146
0.19105131
0.19606627
0.20105590
0.20801024
0.21493041
0.22579557
0.23859679
0.24735381
0.29984710
0.35406799
0.40204772
0.45177736
0.50523834
0.51266236
0.51208920
0.50952882
0.50101099
0.49253568
0.47415313
0.44989256
0.42774324
0.40968446
0.38972595
0.42558746
0.47917966
0.53449339
0.58953065
0.64628295
0.66295137
0.67754697
0.69604883
0.72241878
0.74666686
0.76880369
0.78684930
0.80281524
0.80477113
0.80671720
0.80467338
0.80463037
0.80259704
0.80853385
0.82041139
0.82625913
0.82809782
0.83390741
0.82774772
0.81365900
0.79964075
0.77773256
0.60867366
0.44643034
0.28698823
0.12635345
-0.02949829
-0.04328064
-0.06097443
-0.08056945
-0.10006684
-0.11349639
-0.12884888
-0.14213469
-0.16132384
-0.18041716
-0.20737519
-0.23817839
-0.26882748
-0.29136322
-0.30980620
-0.32218718
-0.33251616
-0.34876341
-0.36691985
-0.38299527
-0.39103026
-0.39703521
-0.39703979
-0.40301480
-0.41293945
-0.43475494
-0.51616120
-0.48771028
-0.41164155
-0.30809326
-0.18317291
0.01674286
0.11814942
0.19118834
0.25192232
0.30837278
0.58742065
0.86706390
1.13137841
1.38641142
1.62623953
1.61810851
1.60404777
1.58806729
1.56818723
1.54840602
1.53668427
1.51109099
1.48761558
1.47022762
1.44894647
1.43374147
1.42856287
1.40947999
1.37656247
1.33186948
1.27346980
1.20541262
1.13968539
1.06831693
1.00924527
0.95046901
0.89795656
0.85565671
0.82550840
0.79551081
0.76964354
0.73793516
0.70638551
0.67101345
0.62984857
0.59286956
0.55806488
0.51547455
0.47508726
0.44087157
0.40682706
0.37494292
0.34520843
0.05891235
-0.30754210
-0.66619443
-1.01708328
-1.35626780
-1.43306646
-1.42391147
-1.41679191
-1.40771827
-1.40664949
-1.41155633
-1.41842832
-1.42327618
-1.43008971
-1.42492904
-1.40984463
-1.39483558
-1.38587129
-1.37695205
-1.36608731
-1.35527682
-1.33855032
-1.31593751
-1.29542816
-1.27900087
-1.26066565
-1.24242246
-1.22029054
-1.19229900
-1.16245722
-1.13276517
-1.09327149
-1.04999494
-1.00892496
-0.97005052
-0.93137016
-0.90283317
-0.88239927
-0.86604719
-7859005
-1.13289725
-1.46951255
-1.79449486
-2.10989260
-1.72920312
-1.53747739
-1.41437005
-1.19038844
-0.80434627
-0.30083465
0.19418975
0.65091886
0.97004394
1.13235354
1.15853178
1.15671932
1.13501524
1.14128017
1.11567378
1.08820557
1.06286430
1.05755007
1.05823266
1.08080137
1.11121702
1.13551080
1.11192321
1.07054376
1.04131102
1.01421439
0.41015381
-0.75405731
-1.95821714
-3.17426633
-4.35836505
-4.81616306
-4.59308195
-4.34325695
-4.17428112
-4.10763931
-4.15874147
-4.23346710
-4.27797031
-4.21678018
-4.04644632
-3.85109424
-3.66865897
-3.45728588
-3.25293946
-3.08145499
-2.95261764
-2.86820430
-2.82003326
-2.78802299
-2.76214289
-2.73241209
-2.69486999
-2.64756560
-2.60049772
-2.54570531
-2.49516677
-2.45284104
-2.42266702
-2.40259385
-2.40053105
-2.40842819
-2.41230607
-2.40223455
-2.37231349
-2.32662200
-2.27120900
-2.21607303
-2.16519260
-2.13247680
-2.11385440
-2.09930515
-2.08880853
-2.08831477
-2.08185338
-2.06348419
-2.02928686
-1.99924039
-1.97531414
-1.96344757
-1.95761051
-1.96772241
-1.96982383
-1.95997467
-1.94420490
-1.93249406
-1.92084159
-1.90924739
-1.89771127
-1.87628259
-1.85496139
-1.83772640
-1.82455778
-1.80150499
-1.76463747
-1.71402444
-1.65968441
-1.61556577
-1.58758783
-1.57566986
-1.56580138
-1.54205226
-1.49653220
-1.44725952
-1.40619325
-1.37926232
-1.36241602
-1.35361421
-1.34286582
-1.33018183
-1.31358087
-1.30701291
-1.30246758
-1.30391538
-1.31132566
-1.32665860
-1.34788572
-1.37497651
-1.40392169
-1.43272209
-1.45938835
-1.47995147
-1.49245176
-1.48498964
-1.45965442
-1.43046627
-1.40341401
-1.38843715
-1.39144492
-1.40637755
-1.42123594
-1.42407989
-1.41297969
-1.38800441
-1.35718476
-1.32651877
-1.30595612
-1.29544639
-1.29095911
-1.27654445
-1.23235166
-1.15454983
-1.03932738
-0.88886079
-0.72322630
-0.55245022
-0.35864777
-0.14989471
0.04985474
0.22472565
0.30718169
0.22206602
-0.05167419
-0.49717588
-1.05387961
-1.62173032
-2.03749179
-2.26610398
-2.30054378
-2.17362093
-1.92992267
-1.68943300
-1.47402582
-1.29949593
-1.17160856
-1.08416044
-1.02699983
-0.98803462
-0.96319456
-0.95041866
-0.94765682
-0.94291868
-0.93422355
-0.91761264
-0.88516445
-0.83695888
-0.78899440
-0.75121974
-0.73154354
-0.73584594
-0.75604705
-0.77813653
-0.78618593
-0.76832485
-0.73463315
-0.68916988
-0.63995418
-0.59695434
-0.57008972
-0.55529932
-0.54655270
-0.53784971
-0.52919034
-0.51858463
-050007171
-0.45180144
-0.48138241
-0.51678557
-0.55002164
-0.57911195
-0.63591642
-0.62079677
-0.60774288
-0.59674434
-0.59376068
-0.59875183
-0.60172820
-0.60070948
-0.59770593
-0.58675746
-0.56989378
-0.55908417
-0.55230898
-0.54556760
-0.53288974
-0.51430540
-0.48785400
-0.45954465
-0.44132690
-0.44111022
-0.45084505
-0.46451048
-0.48009796
-0.47968750
-0.46335906
-0.43915252
-0.41307644
-0.38116087
-0.35338530
-0.33569824
-0.32605955
-0.31646940
-0.30493712
-0.29545257
-0.26611509
-0.23493468
-0.20988006
-0.18694029
-0.16809569
-0.17123534
-0.17037932
-0.15957763
-0.14484984
-0.12621581
-0.10767457
-0.08723603
-0.06689972
-0.05860534
-0.06229248
-0.06397125
-0.06564117
-0.07327301
-0.07688660
-0.07252228
-0.06618957
-0.07580871
-0.09731933
-0.11474274
-0.12013916
-0.13147826
-0.14674101
-0.15794768
-0.17108795
-0.19411253
-0.20906219
-0.21398682
-0.24873688
-0.30122346
-0.35941741
-0.41533021
-0.46300354
-0.47262878
-0.46628537
-0.45599393
-0.45172395
-0.45145540
-0.45516815
-0.45886230
-0.46452789
-0.47215547
-0.48173460
-0.48927583
-0.49279909
-0.48436522
-0.47597351
-0.46762361
-0.45533537
-0.44310884
-0.43492307
-0.42279844
-0.41670436
-0.41661100
-0.41850800
-0.41641540
-0.40836300
-0.39239134
-0.37848906
-0.37062683
-0.38071379
-0.39274015
-0.40072660
-0.40071315
-0.39074950
-0.36889586
-0.34914155
-0.33147583
-0.32583830
-0.33813903
-0.35236847
-0.36652679
-0.37663390
-0.36679077
-0.33311674
-0.30956146
-0.29408354
-0.29062285
-0.30110991
-0.31950438
-0.31989655
-0.32028717
-0.32266569
-0.31906249
-0.31945738
-0.32581999
-0.32419097
-0.31262021
-0.30309751
-0.29163208
-0.27823395
-0.26888275
-0.26554841
-0.27218077
-0.28674009
-0.30520629
-0.31761047
-0.31403229
-0.30251219
-0.29900970
-0.31144471
-0.31983761
-0.33017821
-0.32852721
-0.30101468
-0.25572938
-0.22261075
-0.20557739
-0.20056943
-0.20752654
-0.21643891
-0.20938658
-0.19440979
-0.17353759
-0.16868987
-0.15988646
-0.14316680
-0.11260101
-0.08218780
-0.03998657
-0.01391662
-0.01782745
-0.04758820
-0.09312011
-0.13046478
-0.14971221
-0.15692352
-0.15812927
-0.16131865
-0.18041198
-0.20736999
-0.24414336
-0.28670258
-0.32307889
-0.34733366
-0.35355710
-0.34780912
-0.32816040
-0.30263974
-0.27525663
-0.27786040
-0.29836120
-0.33069944
-0.35690581
-0.37502136
-0.37314634
-0.35337095
-0.31976408
-0.28632535
-0.26300382
-0.25372891
-0.25445005
-0.26113798
-0.25983242
-0.20281310
-0.10030884
0.04944275
0.23426542
0.43806395
0.63487362
0.82870969
0.99769620
1.11807763
1.12641716
0.95959501
0.61450743
0.12189453
-0.44984493
-0.99086580
-1.40779137
-1.64751234
-1.71290493
-1.64066052
-1.47325730
-1.25495088
-1.02778637
-0.80573730
-0.60867857
-0.45041532
-0.33871338
-0.27134978
-0.25208311
-0.25281250
-0.25950834
-0.26020078
-0.24496979
-0.21190490
-0.17104553
-0.13039031
-0.09988862
-0.08147889
-0.07112152
-0.07076568
-0.07240204
-0.07402985
-0.07564972
-0.07726166
-0.07886505
-0.08245057
-0.08402832
-0.08360809
-0.07324005
-0.05894379
-0.04471924
-0.03255554
-0.00851288
0.00744965
0.02532227
0.04907593
0.07470032
0.08427673
0.08982544
0.09534637
0.10680969
0.13015563
0.16333495
0.20231812
0.23115661
0.23995087
0.23278074
0.20574674
0.17088805
0.14615386
0.13945312
0.14671599
0.17384216
0.20879302
0.23759918
0.26626098
0.28681945
0.29732542
0.29981872
0.30229949
0.29282806
0.27743408
0.25216703
0.20314605
0.16233031
0.13564879
0.12303071
0.11843566
0.13376342
0.13110473
0.10656951
0.06225616
0.00821472
-0.05152649
-0.11295868
-0.16612396
-0.20310332
-0.21999785
-0.22486784
-0.23369355
-0.24048521
-0.25122251
-0.27185635
-0.28641721
-0.27503509
-0.25773987
-0.24650115
-0.23929839
-0.24407196
-0.26474151
-0.29525785
-0.31965148
-0.33397338
-0.34225342
-0.34253203
-0.33484923
-0.32919492
-0.33351898
-0.33782167
-0.34011230
-0.34040191
-0.33869993
-0.32904629
-0.32143094
-0.31982393
-0.32618498
-0.33649382
-0.34078154
-0.33111784
-0.31752226
-0.30399475
-0.29053468
-0.28510190
-0.28367643
-0.28424806
-0.28282685
-0.27544310
-0.26809570
-0.26874480
-0.26939117
-0.27401425
-0.28856415
-0.30304107
-0.30948610
-0.30395874
-0.28850860
-0.27313599
-0.26580047
-0.27243194
-0.29096984
-0.32135498
-0.33964812
-0.33596010
-0.31637022
-0.29488828
-0.27351379
-0.27015657
-0.28870573
-0.31313230
-0.33743653
-0.35564911
-0.36382107
-0.34608244
-0.32843198
-0.30489959
-0.27551512
-0.24826750
-0.24304625
-0.24183104
-0.25256161
-0.26323881
-0.26391294
-0.25861330
-0.25334045
-0.25008392
-0.26077330
-0.27936949
-0.28792264
-0.27454314
-0.23337035
-0.18245329
-0.13577086
-0.10524200
-0.09277557
-0.09828186
-0.10774048
-0.12312195
-0.14240632
-0.16358428
-0.18664672
-0.20362334
-0.21454527
-0.22740263
-0.24417572
-0.25887510
-0.28146055
-0.30791351
-0.33224394
-0.35844299
-0.38849058
-0.41241822
-0.42030611
-0.42019467
-0.42207393
-0.43389339
-0.44764404
-0.45137600
-0.44314908
-0.42103333
-0.39106809
-0.36523251
-0.35942625
-0.36757903
-0.38166105
-0.38970274
-0.38775420
-0.36392545
-0.31235594
-0.23915436
-0.14641845
-0.03623627
0.09528473
0.24405822
0.41596832
0.60094814
0.79097347
0.95417871
1.02303767
0.94230222
0.68685054
0.26949677
-0.30895080
-0.73525619
-1.00022995
-1.07681882
-0.98188476
-0.71628522
-0.54753389
-0.42539610
-0.34366912
-0.29817047
-0.28075985
-0.22562592
-0.17673797
-0.14003418
-0.10749421
-0.07511688
-0.08270112
-0.09223786
-0.09774658
-0.10123779
-0.10272186
-0.10618835
-0.10963745
-0.10510956
-0.09861389
-0.08618103
-0.07381012
-0.05951111
-0.05523376
-0.05495758
-0.05667266
-0.05041932
-0.04220733
-0.02408631
-0.00207581
0.01783447
0.02968506
0.03550690
0.03532959
0.03913299
0.04888732
0.06854279
0.09804993
0.12740967
0.15861267
0.18965972
0.21060118
0.21949830
0.22437071
0.21926908
0.20822296
0.21514191
0.23197660
0.24872679
0.26340332
0.27402617
0.26469602
0.25541257
0.24816527
0.24095458
0.23974974
0.24452087
0.24926819
0.26394164
0.28252196
0.29304960
0.29158447
0.27619659
0.24098570
0.19998075
0.16515074
0.13845549
0.10791320
0.07752381
0.04529602
0.00924957
-0.02462646
-0.04440338
-0.05811126
-0.06379090
-0.06745178
-0.08303466
-0.11047912
-0.13380676
-0.15104736
-0.16024230
-0.15944122
-0.14869384
-0.14397034
-0.14922057
-0.15643463
-0.15764281
-0.15685455
-0.17000000
-0.17910003
-0.19611449
-0.22100403
-0.23979887
-0.22267975
-0.19768646
-0.17082793
-0.15007386
-0.14733367
-0.16052672
-0.17962431
-0.18668609
-0.17381286
-0.14707367
-0.12046815
-0.09200592
-0.07761567
-0.08120789
-0.08876191
-0.09030823
-0.08985656
-0.08542695
-0.07704010
-0.06869507
-0.06437134
-0.06205963
-0.04781921
-0.02966980
-0.01161163
0.00038635
0.00237396
-0.01753784
-0.04531006
-0.07294342
-0.08849884
-0.08805633
-0.06771606
-0.04349761
-0.04527008
-0.05300354
-0.05472839
-0.04848480
-0.03630218
-0.00229065
0.02160065
0.02547272
0.01141541
-0.00854156
-0.02640869
-0.03224670
-0.03407562
-0.03788543
-0.03968597
-0.04147766
-0.04724030
-0.05297393
-0.05469909
-0.05442566
-0.05017364
-0.03997284
-0.02584290
-0.01178375
0.00021545
0.01016449
0.02205383
0.03786346
0.05558442
0.07719635
0.09870057
0.11014740
0.12153656
0.13485901
0.14413481
0.15535430
0.16850768
0.18159484
0.19660674
0.21353392
0.22440612
0.22328429
0.19828796
0.15749633
0.11093872
0.06262391
0.02251099
0.00050812
-0.01342438
-0.02529754
-0.03711090
-0.04289551
-0.04666076
-0.05040741
-0.05214538
-0.04989471
-0.04964538
-0.04541717
-0.03325042
-0.01915375
0.00084198
0.02471771
0.04449401
0.05223145
0.04799041
0.03183044
0.02371155
0.04150299
0.09701539
0.20200042
0.34427032
0.50572872
0.68230009
0.88783874
1.08438957
1.27199769
1.43080768
1.47340393
1.33867669
1.03348326
0.57459592
0.00656280
-0.55265994
-0.95983676
-1.18786740
-1.24162805
-1.14188992
-0.92723054
-0.70170454
-0.48327603
-0.30374937
-0.20671050
-0.19970703
-0.26437833
-0.36653656
-0.46420412
-0.52158327
-0.55479521
-0.57988123
-0.60484161
-0.62768735
-0.65240917
-0.66705713
-0.66571183
-0.65243330
-0.64519100
-0.63798522
-0.62086515
-0.60582089
-0.60080184
-0.60575809
-0.60869932
-0.61361570
-0.61054749
-0.59356503
-0.55477719
-0.50623321
-0.43206233
-0.32642211
-0.20737977
-0.09689270
-0.00884827
0.05089600
0.07850158
0.09999909
0.13929901
0.21024260
0.29078123
0.36892728
0.42678279
0.45648894
0.46415648
0.46979551
0.48137664
0.49488954
0.51032533
0.51971340
0.52109527
0.51450958
0.51392726
0.51533751
0.53067107
0.55388731
0.58295803
0.60790309
0.63272371
0.64348993
0.64226255
0.63109102
0.61201534
0.59104518
0.56619997
0.54545927
0.53079166
0.52813749
0.52350707
0.52486968
0.52224545
0.52162446
0.51105618
0.49457092
0.47020812
0.43800687
0.39800689
0.36019682
0.31859588
0.27919311
0.24595704
0.21288726
0.17600279
0.14925262
0.12661621
0.10409332
0.07770294
0.04945465
0.01736725
-0.00858948
-0.02645630
-0.03627380
-0.03808258
-0.03590179
-0.04169219
-0.05143371
-0.05117645
-0.04694061
-0.04272583
-0.03256225
-0.02443909
-0.03227692
-0.04803528
-0.06570527
-0.08129669
-0.08885010
-0.08641571
-0.08200378
-0.07363372
-0.07127533
-0.07489899
-0.08646454
-0.09399200
-0.08954193
-0.06919434
-0.04695862
-0.03080383
-0.02268982
-0.02456665
-0.03439392
-0.03621185
-0.02409058
-0.01203003
-0.00798981
-0.01391998
-0.02579041
-0.03760132
-0.03741333
-0.03125610
-0.02313995
-0.02302429
-0.03285919
-0.05060486
-0.06826203
-0.08185058
-0.08940125
-0.08298432
-0.05868896
-0.03849548
-0.02238312
-0.00635101
0.00562073
0.00161285
0.00160492
0.00557678
0.00753876
-0.00045898
-0.01040680
-0.02030487
-0.03214325
-0.03795227
-0.03577270
-0.02962372
-0.02350555
-0.01144836
0.00253937
0.02043671
0.03824432
0.05795319
0.06562347
0.05932526
0.04907867
0.04883331
0.06251922
0.08807678
0.11748626
0.14475891
0.16393524
0.16510558
0.15632019
0.13762848
0.11505066
0.08462525
0.04838195
0.01032959
-0.01957214
-0.04733398
-0.06898742
-0.08257233
-0.09409943
-0.10158905
-0.11103119
-0.13037596
-0.15957427
-0.18265655
-0.19567321
-0.19469481
-0.17581145
-0.14508270
-0.12047729
-0.11191468
-0.12130523
-0.14258910
-0.16177612
-0.17091736
-0.16807280
-0.15529265
-0.13859618
-0.10805329
-0.02393311
0.08961669
0.23642852
0.42230620
0.63511471
0.82297906
1.02184414
1.19583487
1.31721580
1.30863976
1.13692653
0.75911192
0.23592619
-0.37021329
-0.93352212
-1.36068475
-1.58870124
-1.63249778
-1.52483520
-1.32020103
-1.08275997
-0.85247631
-0.64722414
-0.47881803
-0.34906401
-0.23786864
-0.15707945
-0.09659424
-0.04835114
-0.00631958
0.02555206
0.05726440
0.07687806
0.08047363
0.06813111
0.04590057
0.02179077
0.00775207
0.00373322
0.00968475
0.01759644
0.02944855
0.03925110
0.04701477
0.05075988
0.05448638
0.05819396
0.06387299
0.07151336
0.08110565
0.09065002
0.10611664
0.12349579
0.14277832
0.16196441
0.18105438
0.19208922
0.19112883
0.18022338
0.16738219
0.15858520
0.15580200
0.16497283
0.18205809
0.19706755
0.20404236
0.20501189
0.20597717
0.21290709
0.23174254
0.25645384
0.28502135
0.30747618
0.31986906
0.32423949
0.33057830
0.33290526
0.33323087
0.34350433
0.35969724
0.37182860
0.38389954
0.39790008
0.39790037
0.38795104
0.37208127
0.34833068
0.31872892
0.28927490
0.27588865
0.27450928
0.27910706
0.28368134
0.28226284
0.26294157
0.23376708
0.20075805
0.16791412
0.14120452
0.11263824
0.07824493
0.03805389
-0.00591614
-0.04966674
-0.08523864
-0.10869263
-0.11809936
-0.12148895
-0.12287110
-0.13220702
-0.15343596
-0.18251891
-0.20946624
-0.23229887
-0.24307737
-0.24584167
-0.24063262
-0.23146972
-0.21837248
-0.21131072
-0.20627441
-0.20325286
-0.20820679
-0.21313598
-0.20212035
-0.18916961
-0.18026397
-0.16941254
-0.17055541
-0.18761229
-0.20458405
-0.21351134
-0.20846374
-0.19150115
-0.17263365
-0.15187041
-0.13519103
-0.12854491
-0.12591247
-0.12130310
-0.11671631
-0.11414307
-0.10959229
-0.10705413
-0.10850892
-0.10796631
-0.10543640
-0.10689911
-0.11233429
-0.12172241
-0.14101378
-0.16219878
-0.17929747
0.08825897
0.71068754
1.31806421
1.93633356
2.55947232
2.89890432
2.90829010
2.89573841
2.88523960
2.86882324
2.87039947
2.81027698
2.68080592
2.34104204
1.83382711
1.20974791
0.58082914
0.05654510
-0.25815763
-0.39218688
-0.41211576
-0.38020536
-0.33850431
-0.30696196
-0.28950743
-0.28208982
-0.29460935
-0.32895631
-0.36910154
-0.40108642
-0.42495088
-0.42481627
-0.39881224
-0.36298825
-0.33132352
-0.30578672
-0.29032775
-0.28091611
-0.27553162
-0.27216398
-0.27080321
-0.26944913
-0.26810212
-0.26676177
-0.26542816
-0.26410124
-0.26278076
-0.25947663
-0.25817899
-0.25688812
-0.25560364
-0.26427581
-0.27887482
-0.29738035
-0.32574341
-0.36789460
-0.41381530
-0.46945614
-0.52879910
-0.58386507
-0.63069543
-0.66734189
-0.69385528
-0.71625609
-0.73655457
-0.75078172
-0.75498776
-0.74325270
-0.70968656
-0.65439820
-0.57749600
-0.48306851
-0.37120330
-0.24397704
-0.14524719
-0.15845093
-0.36660857
-0.99361572
-1.64932737
-2.29181051
-2.84153156
-3.21736407
-3.20127749
-3.18527102
-3.16934466
-3.15349817
-3.13773059
-3.12204194
-3.10643172
-3.06502962
-2.84075469
-2.21960067
-1.60752286
-1.00646543
-0.44025297
-0.05995178
-0.07756196
-0.08513427
-0.07873840
-0.06441498
-0.04817291
-0.03201202
-0.01792206
-0.00788239
0.00011688
0.00608612
0.01202576
0.01594544
0.01785583
0.02174652
0.03158783
0.04535980
0.06503296
0.08858764
0.10804474
0.12143464
0.12679718
0.12218322
0.11361236
0.10508393
0.09659851
0.10606567
0.25677549
0.75896148
1.35216641
1.94638614
2.51773381
2.96085529
3.05948090
3.04418349
3.03294277
3.03767776
3.03641891
2.99138689
2.99235010
3.00325798
2.96635150
2.86196947
2.59890961
2.13418555
1.52651453
0.89203186
0.29853148
-0.09897125
-0.30344665
-0.36560943
-0.34985136
-0.30432219
-0.25703063
-0.22390563
-0.20686583
-0.20185151
-0.20283203
-0.20778808
-0.21072907
-0.21564545
-0.22451720
-0.24329466
-0.26794829
-0.29048826
-0.30296568
-0.30543060
-0.28798368
-0.25868346
-0.20365996
0.15953826
0.48908081
0.77319517
1.05787932
1.30730986
1.25301361
1.23480832
1.27639400
1.45110187
1.76622638
2.08972501
2.41160631
2.66620802
2.80013656
2.82792587
2.82970600
2.81356811
2.83332967
2.84901313
2.79894804
2.78097319
2.73124861
2.68973255
2.65638399
2.65504145
2.64375638
2.66834735
2.65898609
2.61783146
2.58683228
2.54603743
2.52534747
2.53859114
2.55176806
2.57482910
2.59180498
2.55098605
2.52430129
2.52361941
2.50702166
2.45468664
2.44639277
2.43615102
2.42596030
2.43174028
2.42754149
2.41739368
2.40530657
2.37736010
2.35154318
2.35570573
2.34392714
2.31628727
2.29077601
2.25345182
2.23422455
2.24295353
2.26954865
2.25422120
2.24692964
2.25360465
2.24631714
2.22911596
2.22990965
2.23070025
2.22352719
2.22235965
2.21721768
2.23399138
2.24073171
2.18574786
2.15093874
2.12426447
2.11165285
2.08915424
2.13044857
2.15163660
2.11898827
2.06461358
2.01647996
1.96659755
1.93089475
1.96303033
2.00097489
2.01883029
2.02863621
2.04635286
1.98836116
1.94657917
1.90699615
1.87756099
1.83832340
1.87888145
1.85953702
1.86416959
1.86678867
1.87337436
1.85405731
1.88856716
1.87116451
1.83792839
1.80883874
1.78188467
1.75705504
1.78408994
1.77914915
1.79612398
1.82296285
1.78001856
1.76116847
1.79415216
1.78916168
1.73046565
1.73574361
1.71711516
1.67867946
1.66232538
1.66794395
1.68149433
1.69497704
1.67655205
1.63234891
1.61821746
1.60017633
1.58620510
1.57230434
1.55847320
1.56063079
1.55083761
1.55303344
1.59501829
1.58903312
1.55919766
1.54543151
1.51780424
1.48832569
1.51471376
1.54494991
1.55513548
1.56725978
1.53554320
1.50000572
1.49847531
1.49496326
1.44370841
1.44047021
1.45913753
1.42199182
1.41090202
1.45160760
1.45628967
1.45298790
1.45169343
1.41856441
1.37764191
1.37473320
1.37780940
1.34903013
1.36417508
1.37327456
1.37834739
1.35752618
1.38655853
1.38360595
1.39061760
1.35978484
1.34701538
1.32834076
1.31373834
1.28925991
1.29077363
1.27436983
1.25207817
1.24382781
1.22964870
1.21753084
1.20149314
1.20344567
1.20737850
1.21925139
1.23305511
1.26071989
1.27630579
1.23211419
1.19212400
1.17223322
1.14846217
1.11883974
1.14309537
1.16325008
1.13952326
1.15571594
1.18575775
1.15196835
1.12431883
1.12665712
1.07525360
1.03604769
1.05275750
1.08132326
1.09979677
1.14006769
1.16421723
1.16436648
1.11675441
1.07933044
1.05602419
1.05273437
1.02359068
1.03439271
1.05907046
1.06969535
1.02056694
1.02143490
1.03821718
1.04098629
1.00195062
1.02281069
1.02167725
1.01059937
0.97171573
1.00068724
0.98772277
1.01462399
0.97771053
0.98277158
0.97387809
0.95706911
0.95626401
0.97138242
0.95259513
0.94982233
0.95900325
0.94027824
0.96542663
0.99243955
0.94767761
0.94094905
0.91435422
0.89187250
0.85557308
0.88910522
0.91053037
0.92985715
0.94311771
0.95830192
0.97341060
0.96058406
0.94384088
0.89932184
0.90875549
0.84650144
0.83430900
0.81222715
0.82607660
0.79209594
0.83589534
0.80982542
0.83960628
0.81351804
0.84726009
0.81317386
0.84691772
0.80885372
0.82669916
0.82654600
0.84828300
0.81817197
0.81010131
0.79212093
0.79015073
0.75435972
0.77844786
0.78649530
0.81838254
0.77051086
0.79053773
0.74280576
0.77093133
0.73921689
0.76935057
0.74361391
0.74984617
0.74410638
0.71849546
0.70296382
0.72332882
0.71374206
0.70022339
0.71264219
0.72300901
0.70546383
0.73974666
0.71017818
0.73448667
0.68902401
0.70149898
0.64625120
0.67685055
0.63565549
0.66033811
0.66698670
0.70345153
0.65615415
0.68869323
0.65937986
0.62424316
0.64102172
0.65174679
0.63455810
0.63337583
0.62821903
0.60517826
0.58822326
0.58727169
0.62811584
0.62497558
0.62981014
0.64656066
0.66322751
0.66389160
0.66654233
0.65922970
0.65195312
0.61685299
0.60779848
0.58883848
0.58589415
0.57102537
0.58607969
0.55130858
0.59233212
0.58937072
0.63020381
0.60914306
0.59813780
0.58917660
0.55837097
0.53965945
0.51706118
0.53238582
0.48594360
0.49943418
0.47106690
0.52642207
0.52577943
0.55897035
0.54224486
0.58132386
0.54458737
0.53390445
0.54715514
0.54043941
0.53972716
0.53901858
0.52637329
0.49787106
0.53717160
0.52652587
0.50797300
0.50344362
0.50092649
0.45265135
0.42451844
0.45423645
0.46390442
0.45959529
0.48913698
0.47873106
0.45444698
0.48401489
0.49154477
0.45127744
0.48086118
0.48641662
0.44020385
0.44596376
0.44572324
0.41762452
0.43941650
0.44915895
0.44492368
0.43871884
0.45642514
0.45016293
0.45587282
0.44364318
0.44739499
0.44515805
0.41507201
0.39508726
0.40505127
0.39705564
0.40303039
0.40101499
0.44278993
0.41669554
0.45441160
0.42427978
0.45001769
0.41592774
0.43971862
0.40966000
0.40761170
0.36975340
0.37785460
0.34412536
0.35633482
0.33863279
0.33494935
0.33327455
0.35747802
0.34176146
0.36592283
0.41185302
0.39586424
0.40383481
0.39982542
0.39981627
0.38985717
0.38591856
0.37005920
0.37616882
0.39816832
0.35040709
0.33870482
0.31313171
0.31753599
0.30997862
0.33628904
0.38833799
0.40032591
0.42220458
0.39820310
0.37830259
0.33462095
0.33493776
0.33326292
0.35547666
0.34573912
0.35794067
0.33426084
0.32263975
0.29316649
0.33747007
0.34971251
0.34995422
0.33029417
0.35849304
0.30894041
0.29545531
0.32979795
0.31222839
0.28081724
0.32319333
0.32157776
0.30205991
0.34233946
0.34460692
0.29711425
0.29960813
0.29413022
0.29663877
0.28719541
0.31361937
0.30807127
0.30653073
0.25723814
0.25993161
0.27256224
0.25129942
0.27790281
0.27452330
0.30101072
0.27960510
0.27223753
0.24898619
0.24973082
0.23654236
0.22341918
0.24220213
0.21313171
0.22400572
0.23880553
0.22965147
0.24044311
0.24521057
0.26786496
0.21677551
0.24355163
0.21049377
0.23929138
0.22416503
0.23100402
0.21591856
0.21483886
0.20978515
0.23261535
0.23742249
0.23623535
0.28480467
0.26348021
0.24624207
0.25695066
0.27158629
0.22246763
0.25120544
0.23004941
0.24879941
0.23561582
0.25632750
0.21524596
0.21615965
0.21706910
0.20205321
0.21497373
0.25170836
0.23652038
0.23334715
0.24809997
0.21899962
0.18606445
0.21896424
0.17209899
0.17720885
0.18030212
0.22119078
0.20615539
0.24492430
0.24170897
0.26437988
0.23320798
0.25393187
0.23077208
0.22165832
0.21458008
0.20753662
0.21445922
0.20542602
0.18449889
0.18158691
0.18266844
0.18175476
0.17487609
0.20783202
0.20281248
0.19582885
0.18489990
0.20785522
0.22273619
0.20769224
0.24844422
0.23128173
0.24206542
0.20901489
0.24379029
0.22267150
0.20165772
0.20263977
0.20560607
0.17074829
0.13805419
0.15129333
0.12864685
0.15586364
0.14513426
0.19017821
0.18524779
0.20820066
0.18328001
0.17639343
0.15362120
0.14489317
0.14018919
0.13351807
0.13285033
0.15009582
0.16128540
0.13062927
0.15982604
0.16499755
0.16417236
0.14743103
0.16858397
0.11998107
0.14923095
0.11664428
0.15785095
0.13716186
0.18025571
0.15746520
0.15667785
0.12803405
0.11744384
0.11088684
0.12028198
0.11570007
0.14497131
0.15419615
0.14148558
0.17062804
0.19564452
0.14889647
0.16606140
0.15926085
0.14055480
0.15776245
0.16891357
0.17801879
0.16916870
0.12852294
0.10002075
0.09156066
0.10105285
0.12641785
0.13971617
0.14697752
0.19201231
0.14727294
0.15847656
0.15768432
0.17480652
0.12617187
0.15539122
0.14665405
0.15388060
0.10933166
0.14858459
0.11202087
0.12141052
0.11881408
0.11822022
0.10369874
0.14895019
0.11835510
0.14960326
0.18467529
0.15589171
0.14715209
0.12651610
0.11394287
0.07755310
0.12492492
0.09047119
0.12782835
0.09136840
0.11280152
0.08835815
0.13169616
0.14098753
0.18008300
0.18515258
0.16034667
0.13964476
0.11307678
0.07072144
0.09026795
0.11966614
0.09916749
0.10066162
0.11209778
0.09163696
0.06928956
0.10078247
0.10226868
0.09578735
0.06545838
0.09697143
0.08852600
0.09007325
0.11549316
0.12685546
0.12622131
0.09375061
0.09925171
0.08283569
0.11625121
0.08979980
0.09333008
0.05903381
0.07465820
0.06234497
0.10581359
0.14906432
0.14831910
0.16349731
0.13481993
0.11225585
0.08582519
0.09534607
0.0586
0.08864318
0.06830018
0.08586853
0.07946961
0.07509155
0.07670655
0.10219360
0.07183289
0.06749329
0.10496582
0.08852111
0.05225830
0.04801757
0.09553771
0.09904052
0.11446533
0.13976256
0.14702391
0.09653869
0.10998536
0.09152587
0.07713746
0.10660218
0.13591918
0.12727965
0.13261352
0.15981017
0.13911132
0.14836607
0.12374390
0.09128540
0.05102905
0.02689453
-0.01304016
0.00891479
0.04668030
0.08823730
0.11366577
0.15289733
0.11034240
0.10979065
0.10128173
0.09878479
0.09232055
0.10777832
0.07341003
0.05115295
0.05885743
0.04662292
0.02449951
0.05621704
0.04598632
0.06366577
0.06135803
0.11279114
0.07839722
0.11581482
0.06747559
0.04723816
0.01516174
0.02503601
-0.02085876
0.02501526
0.04678040
0.04455627
0.07020325
0.09970215
0.06537414
0.04514709
0.06880066
0.06845642
0.05020446
0.05592407
0.09743409
0.09893676
0.08053222
0.08410949
0.07373902
0.07934021
0.07297363
0.07061829
0.06827515
0.05599365
0.05173401
0.04550476
0.03731689
0.07295044
0.10840637
0.08796387
0.07359375
0.06924622
0.06890015
0.03870605
0.02657227
0.06623902
0.09973755
0.06540894
0.06906189
0.09856689
0.07220459
0.04796325
0.03777344
0.05748414
0.01540771
0.01334045
0.00929382
0.01720703
0.03702087
0.06270569
0.05244202
0.08799926
0.11939941
0.07900269
0.06666749
0.05240478
0.06010253
0.06179199
0.06546264
0.05916564
0.08473938
0.05048584
0.00048340
0.00048096
-0.00350159
-0.02338440
0.00459229
0.03839966
0.02825745
0.02214539
0.02203430
-0.02185547
-0.03368652
-0.02953796
0.01041016
0.03821777
0.04598694
0.03182678
0.07345765
0.06314026
0.05287475
0.09241027
0.13572876
0.09922973
0.08281373
0.09434020
0.08192872
0.03773865
0.06938965
0.06904235
0.03884704
0.03865295
0.06034973
0.02024780
0.01815674
0.05189575
0.04964661
0.04740844
0.05911193
0.05085632
0.04463134
0.03047852
0.00246643
0.03827392
0.05002259
0.02589234
0.04168334
0.07132507
0.02121887
0.05295228
0.04472778
0.00072449
0.01067139
0.02852783
0.02838501
0.05610290
0.08368225
0.05938415
0.07898682
0.05670166
0.02258789
0.03839539
0.04417358
0.01609253
-0.00189758
0.05383179
0.04759277
0.02944397
0.03128662
0.02715088
0.01706543
-0.00291992
0.01102417
-0.00495056
0.03686462
0.02673035
0.02261658
0.05235352
0.06801147
0.02588196
0.02973206
0.03953308
-0.00444397
0.02940796
0.04120117
0.05691528
0.05066101
0.06234741
0.05009582
0.07372558
0.02758667
0.01152893
0.02938110
0.01530395
0.00925720
0.04105102
0.05278564
0.02068176
0.03052795
0.01246582
0.01041321
0.02031128
0.02020935
0.03801819
0.05374817
0.02760986
0.00558166
0.05530334
0.04109741
0.02298096
0.04475585
0.07637207
0.05210998
0.01602966
0.04977966
0.03958069
0.01550293
0.03134460
0.07098816
0.04277344
0.01867981
0.03052551
-0.01141663
-0.02927002
-0.02315308
0.00283264
-0.01907166
0.02679382
0.02665955
0.00463562
-0.02125732
0.01665894
-0.00730469
-0.02318787
-0.02506226
01287292
-0.00311096
-0.02100586
0.01491943
0.04469482
0.02656128
0.00453796
0.00451477
-0.02734741
-0.00930115
0.01064514
0.03248169
0.03629944
0.06198730
0.04774780
0.02959839
0.01950012
0.05920288
0.07084656
0.06054199
0.05028930
0.04804809
0.00601868
-0.04376159
-0.03160339
-0.02547485
-0.03330749
-0.00130188
0.02855408
0.01647217
0.04623962
0.07784790
0.07347900
0.09699097
0.12635558
0.11378480
0.09331542
0.06100892
0.00896423
-0.04680053
-0.07641663
-0.04817443
-0.01609314
-0.00407349
-0.00007324
-0.00604248
0.00393799
0.00192810
0.03574829
0.06343018
0.06510254
0.03094727
0.04074218
0.00869873
-0.01522522
0.01271179
0.01662781
0.02649475
0.06019287
0.07581115
0.04956176
0.06921387
0.04896728
0.02484192
0.01675781
0.01667419
-0.02519897
-0.04099243
-0.03282776
-0.03465332
0.00134033
0.05506286
0.06672791
0.05246399
0.05419128
0.01213013
0.01007996
0.03191955
0.05364990
0.08721191
0.12856627
0.08812316
0.04191223
0.01782287
-0.00813660
-0.03396545
-0.03578613
-0.00774719
0.00821228
-0.00575928
-0.02164978
0.01029785
0.01024597
-0.00174438
0.00025391
0.01418335
0.01610230
0.02398193
0.01391235
0.00190247
0.03572265
0.02758423
-0.01036438
0.02948791
0.06118042
0.02903442
0.04480957
0.09234497
0.07795288
0.07955323
0.09109559
0.05879943
0.01472595
0.03256164
0.03836853
0.01429687
0.00029541
0.00228394
-0.05145751
-0.07110047
-0.05283508
-0.05058044
-0.04236755
-0.04016541
-0.02006470
0.00590637
0.00985657
-0.00611267
0.03172791
0.00569946
0.01363098
0.04540283
0.06507568
0.03888000
0.03669555
-0.01323791
-0.03904175
-0.05277648
-0.02664246
-0.01058960
0.01334351
0.04511657
0.07076049
0.05846619
0.04822388
0.07385315
0.06353393
0.03734558
0.00730896
0.03712219
0.00111694
-0.03072876
-0.03853516
-0.00252258
-0.01842957
-0.02430786
-0.03015625
0.01775452
-0.00422485
-0.02808350
-0.03789306
-0.03770324
-0.03552490
-0.01942749
-0.00341064
-0.00936340
-0.01130676
-0.02716980
-0.02305420
-0.02293884
-0.00491333
-0.00687866
0.01106567
0.01499084
0.02088562
0.02874084
0.05247741
0.00445557
-0.00551636
-0.02737915
-0.02127258
-0.03310668
0.00486939
0.00484497
0.02074097
0.01466736
0.01658325
-0.02130921
-0.00130249
0.00268433
-0.01125916
-0.00125305
0.02661316
0.02846985
0.02036804
0.02623596
0.00421509
-0.01968628
-0.02157776
-0.00753967
-0.01347229
-0.01539429
0.00060242
-0.02129089
-0.04108398
-0.00107849
-0.00107300
-0.00703735
0.00891785
0.02877319
-0.00122070
0.03858520
0.07222290
0.06191223
0.03374267
0.04352417
0.01345642
-0.00452148
-0.00449890
0.01741394
0.00339722
0.04317993
0.04495361
0.02084900
0.01477417
0.00674011
-0.03707336
-0.02494873
-0.01288391
-0.03072937
0.01718384
0.03301818
0.02489258
0.01481812
0.04061401
0.00857117
0.00454773
-0.03129516
0.00269165
0.02058777
0.01053467
-0.00145813
0.05028930
0.01819763
0.01014648
0.02999573
0.02984558
-0.02204407
0.0138855-0.00608398
0.00389648
0.02377747
0.06345886
0.05319152
0.03899536
0.03880005
0.05651611
0.03633362
0.04212158
0.05584106
0.02372193
0.03156311
0.03140564
-0.00059082
-0.00257812
0.00141418
-0.04436279
-0.03618103
-0.02007935
-0.03788940
-0.05162963
-0.02749207
-0.04128417
-0.05898804
-0.01292358
0.03092102
0.02877625
0.02863220
0.02052917
0.02440613
0.00438416
-0.00558777
-0.00953918
-0.00153198
-0.04132446
-0.02917725
-0.01709228
-0.01103638
-0.01297180
-0.02285706
-0.04662292
-0.03842957
-0.03624817
-0.04004639
-0.02591675
-0.03971679
-0.03553894
-0.02939087
-0.02725342
0.00870300
0.02059937
0.03840637
0.04617371
0.05788269
0.05560303
0.09114502
0.08073913
0.08630494
0.11572327
0.07932435
0.03315735
-0.00083801
-0.01078369
-0.04654968
-0.05825684
-0.01617554
0.00181519
-0.00416321
-0.01011169
-0.01006103
-0.00006042
-0.02593018
-0.00987976
0.03593933
0.05765014
0.01358154
0.00754395
0.01347595
0.00942871
0.02331116
0.02717468
0.03300842
-0.00496643
-0.00892212
-0.01683716
-0.02471313
-0.00468933
0.00926453
-0.03456237
-0.02045898
-0.01040649
-0.01234436
-0.03616272
-0.00215149
-0.02005066
-0.01597046
-0.03380066
0.01810852
0.02000793
0.00597778
-0.00400207
-0.00796265
-0.01787292
-0.02773376
0.01220459
0.03403381
0.03983398
0.04958496
0.04137695
-0.00658997
0.00339294
0.03322571
-0.01071960
-0.01663635
0.02921692
0.00320068
-0.01074463
-0.01865173
0.01527222
-0.03256408
-0.00056091
0.02531189
0.06697571
0.04077087
0.06643738
0.02232483
0.02619324
-0.00975830
-0.01567932
-0.03550109
-0.03731384
-0.04707703
-0.03490173
-0.04666687
-0.03051270
0.00346924
-0.03037720
-0.04017578
0.00778503
0.03759582
0.04138794
0.03322082
0.07484498
0.04860107
0.01850830
-0.00745483
0.00054199
-0.04125061
-0.05895507
-0.04075012
-0.02064636
-0.01656372
0.01734924
0.04512268
0.00310669
-0.02675843
-0.02861511
-0.07026184
-0.05996093
-0.02384155
-0.01775269
0.00422607
0.04997497
0.01589478
0.01979553
0.03959655
0.02546875
0.00146118
0.00145386
-0.02044250
-0.05019043
-0.03401978
-0.03583984
-0.04561035
-0.01354248
0.02234497
0.00830322
0.01224121
0.01217957
0.00813904
0.00610840
0.02796753
0.01389709
0.02377747
0.00773865
0.00172913
-0.03807983
-0.04186889
-0.00783020
-0.03764099
-0.02153259
-0.00550537
0.00049255
-0.03931030
-0.03911377
-0.06677856
-0.07241455
-0.08001281
-0.07563293
-0.06928406
-0.04107788
-0.00903259
0.01688232
0.02873840
0.04053467
0.00451111
-0.01143127
-0.02132447
-0.01126831
-0.01320190
-0.01711548
-0.00110962
0.02874634
0.01268311
0.04843933
0.06212707
0.06579590
0.05551635
0.06518859
0.01511230
0.04090698
0.01483215
-0.01509216
-0.00108643
0.02876892
0.00673523
-0.01518860
-0.01909180
0.00289307
0.02078918
0.01869507
0.02457153
0.04832946
0.00629822
-0.04149292
-0.02536560
-0.00533875
-0.02123169
0.00474426
0.03059082
0.02247742
0.04823547
0.07187378
0.03768432
0.06535583
0.09089843
0.08646423
0.06613221
0.10759216
0.07322388
0.01713806
0.00113220
0.01704712
-0.02283813
0.01309570
0.04686035
0.03468567
0.00466187
0.02652893
-0.00743347
-0.01535645
-0.03318908
0.01075623
0.00871216
-0.01521118
0.00675537
0.02662170
0.00260864
-0.00536438
0.01655273
-0.03129089
-0.00924438
0.01269226
0.00665894
-0.00133484
0.05240234
0.05015015
0.02203979
0.01596008
0.05766968
0.06136169
0.03518493
0.02306885
0.06474366
0.04451965
0.01444702
0.01039490
0.04815247
0.01408203
0.03590148
0.05164246
0.05337402
0.01927673
0.00127014
-0.04450684
-0.05821350
-0.04797241
-0.05171265
-0.03752380
-0.02738647
-0.00734985
0.00462708
0.03644348
0.03825134
0.01815979
-0.00581055
-0.01573120
-0.04948303
-0.01540527
0.01651123
0.00050903
-0.01143372
0.03240356
0.00836120
-0.00163086
0.00633667
0.03217529
0.00415466
-0.01377686
0.01415283
0.01607178
-0.01982849
0.00415100
-0.00383057
-0.01376160
0.00620666
0.04597595
0.02982666
0.05355773
0.02940979
0.00140259
-0.03840454
-0.02229248
-0.03213074
-0.03993041
0.00205933
-0.00392151
-0.01584106
-0.01377258
-0.01768372
-0.02555481
0.00243286
-0.00951904
0.01241821
0.03623596
0.03008484
0.02396484
0.02583496
-0.01409424
0.00786621
0.00384705
0.00382812
-0.00216125
-0.00215027
-0.00213928
0.00782104
-0.00614746
0.01776306
0.04354431
0.03735595
0.02124939
0.06293335
0.06659852
0.05233581
0.00829407
0.02417236
0.00614136
-0.02373901
0.00822021
0.01215942
-0.02173218
-0.01167297
0.00828552
-0.00568665
0.00827209
0.02614075
-0.00980957
-0.03364074
-0.01556274
-0.00155457
-0.02741638
0.01451050
0.03433838
0.00232727
-0.02753418
0.01240356
-0.00556946
-0.02743103
-0.04122436
-0.01713806
-0.04690247
-0.02875793
0.00919617
0.04497009
0.04673522
0.05645141
0.05815918
0.04990845
0.02577820
0.00972961
-0.01419922
-0.02009827
-0.02795715
-0.02781738
-0.04160888
-0.01155029
-0.03139282
-0.00934570
0.03448059
0.06415832
0.05388732
0.06754822
0.05925048
0.02313416
0.04490844
0.05264404
0.03447082
-0.00948120
-0.02734436
-0.03715759
-0.03498169
-0.03082642
-0.01475220
-0.00273804
-0.03058411
-0.06028076
-0.02614990
-0.03397888
-0.00196838
0.02391113
0.03573120
0.03356262
0.06921509
0.05294861
0.03676391
0.07239990
0.05611816
0.03394714
0.00591797
0.03175842
0.02164978
0.00164124
-0.01826721
0.02361389
-0.01033386
-0.04610229
-0.03592163
-0.01982178
-0.02171265
-0.02160400
0.00636414
-0.00958740
-0.01351929
-0.01345154
-0.00144409
-0.01138672
-0.01928955
0.01662659
0.00858337
0.01848999
0.00645752
0.00244446
-0.00154785
0.00243896
-0.01548279
-0.00545532
-0.00741821
-0.00539124
-0.02526428
-0.04503784
-0.01894226
0.00105225
-0.02283325
0.00116150
0.04095581
0.01687073
-0.00112366
0.00684204
0.00481751
-0.02107666
0.00489868
0.03472412
0.01465027
-0.02522278
-0.00917603
-0.02903015
-0.04878540
-0.05053162
-0.00450928
-0.00050659
0.02536560
0.04314880
0.04492309
0.00887878
0.00485413
-0.03098999
-0.04277526
-0.00873108
0.03708252
0.04684692
0.06651246
0.04627991
0.04604858
0.01596863
-0.00202148
-0.01793213
0.03588806
0.03968872
0.05939025
0.07501282
0.08458740
0.06824463
0.04203308
0.01396301
0.02185303
0.02174377
0.03755554
0.05328735
0.03710083
-0.00686462
0.00710022
-0.00089600
-0.03074158
0.00722290
0.00917664
0.01510071
0.02298523
0.05272033
0.03852661
0.08410462
0.08368408
0.06137513
0.03718811
0.04098266
0.01490784
-0.01501648
-0.03683166
-0.01873718
-0.03257385
-0.01450012
0.00149231
0.01740479
-0.00059204
0.00339111
-0.01652588
-0.05027344
-0.04206237
-0.03588196
-0.05361267
-0.04140503
-0.00338745
-0.00138123
-0.00734375
0.04244324
0.05218079
0.02206970
0.00603943
-0.00394043
-0.04372070
-0.07534180
-0.06700562
-0.07463013
-0.06430664
-0.06398499
-0.02386536
-0.00782654
-0.01176697
0.02212158
0.03395142
-0.01596802
-0.04573853
-0.01367004
-0.01957214
-0.03141357
-0.02727661
-0.01519958
-0.04497375
-0.04474914
-0.02462585
-0.01057251
-0.02245972
0.00750244
-0.00646545
-0.01439270
-0.02626099
0.02760010
0.02945190
0.03925476
0.02910828
0.02299194
0.01093689
0.01287231
-0.00510193
-0.00706665
0.01286865
-0.02898621
-0.02685120
-0.02870728
-0.03851379
-0.01444092
0.02742126
0.01136414
0.03319702
0.05492126
0.06459656
0.02049377
0.03631165
0.01224976
0.02810852
0.00010742
0.00806763
-0.01983337
0.00414612
-0.01179443
-0.02765564
-0.02353699
0.01837097
0.02026855
0.02613708
0.03794616
0.03775635
0.00970764
0.00368957
-0.00229858
0.00965271
0.00761475
-0.02227295
-0.03609192
-0.05382141
-0.04758239
-0.01351440
0.03033325
0.02819214
0.02407105
0.02395081
0.00393127
-0.03389832
-0.00387878
0.02798096
0.02386108
0.02374207
0.01765381
0.00562500
-0.02823303
-0.02013245
-0.02600159
-0.00000183
0.00596863
0.05170837
0.03154968
0.02343201
0.04122436
0.02907837
0.00306335
0.00702820
0.02689270
0.01083801
0.02670410
0.05642028
0.05613770
0.03993652
0.05764648
0.04541870
0.01733154
-0.01260559
0.01531799
-0.00266968
-0.00862610
-0.02052307
-0.01445007
-0.01238831
-0.01630615
-0.04408447
-0.05580383
-0.00179565
-0.01969666
-0.03750854
0.00247925
0.04425720
0.00224609
0.00024475
0.01616394
-0.01774658
-0.00173828
0.03011047
0.05384033
0.07148072
0.08704285
0.04083801
0.00481384
0.00479004
0.00874573
0.02860168
0.04835815
0.03617614
0.03002563
0.01594544
-0.01000366
0.00795593
0.05169678
0.01760803
-0.00437073
-0.02424927
-0.06989807
-0.07750855
-0.04727111
-0.04305541
-0.00304016
0.04274536
0.04253173
0.01445923
0.04025696
0.03209595
-0.00985474
-0.03965576
-0.00960754
-0.00955932
-0.02742126
-0.02728394
0.00867187
-0.01326172
-0.04702514
-0.01893005
0.02096497
-0.01098022
-0.01490478
-0.01881042
-0.01075623
-0.02264282
-0.02650940
-0.02836731
0.00759460
-0.02428284
-0.03610168
-0.02995117
-0.03975158
-0.03358215
-0.02147522
-0.04524719
-0.03109131
0.02080383
0.02666992
0.01857605
0.02843322
0.04023071
0.02609985
0.00407898
0.01400818
0.02388794
-0.00409119
-0.03193115
-0.01784119
-0.02571167
-0.00568298
0.02021484
0.01812378
0.02400330
0.04577332
0.02763428
0.00560669
0.00557861
-0.03822998
-0.03007874
-0.05181823
-0.04160949
-0.02946106
-0.01737366
-0.02325623
-0.00921020
-0.02906433
-0.00702881
0.00892639
-0.00504822
-0.00303284
0.00096191
-0.04083313
-0.07246887
-0.04623718
-0.04401611
-0.03981628
-0.02966736
0.01028137
-0.03354980
-0.03139160
-0.04317444
-0.01310852
-0.02896362
-0.02682862
-0.03863464
0.00135803
0.00334106
0.02720459
0.04497864
0.05470337
0.01861023
0.01652710
0.01047424
0.00246216
-0.00152954
-0.00152161
0.00445618
0.01438416
0.01630188
0.02020020
0.03402954
0.00400940
-0.01790100
0.00009827
0.02198791
0.03580871
0.02169922
0.00766113
-0.00829773
-0.02019653
-0.05193542
-0.01386597
0.00809326
0.00009216
0.00606201
0.03787170
0.02375244
0.02363403
0.02550598
0.01542847
-0.00454895
-0.03039673
-0.01233398
-0.01426270
-0.01220093
-0.02607056
-0.02195984
-0.02583069
-0.00978210
0.01016724
0.03200623
0.02985596
0.02572693
0.01564819
-0.02821045
-0.00219910
0.02766174
0.00563293
-0.00434509
0.02154602
-0.00841186
0.01352051
-0.00644714
-0.00044556
0.00552673
0.00947876
-0.02837830
0.01753418
0.02540588
0.00736877
0.00136169
-0.01257446
-0.01251160
-0.00647888
0.00151306
0.00548523
0.03132751
0.01525085
0.02114441
0.01705933
-0.00093689
-0.02282166
-0.02270752
-0.05045471
-0.06811218
-0.02399170
0.00995789
0.02383850
0.01177917
0.06346008
0.02135254
-0.00263367
-0.03446045
-0.00443848
-0.04421630
0.00177429
0.03559570
0.05133728
0.03317077
0.04494507
-0.00502991
-0.00500488
-0.03085022
-0.03069641
-0.04845276
0.00352966
-0.01638794
0.00956421
0.01548645
0.02535889
0.02125183
0.01517578
-0.01077087
-0.01668640
-0.00665283
-0.04442932
-0.07206726
-0.02792725
0.00405273
-0.01188721
-0.02177734
0.00420166
-0.00974975
-0.04552124
-0.02738342
0.00459351
-0.00537903
-0.01331238
0.02456421
0.03837158
0.01827942
0.00624756
0.02014587
0.00014465
-0.02572632
-0.03156738
0.00839050
0.01630798
0.03015625
0.04592590
0.08350585
0.06915832
0.03100220
-0.00895264
-0.02880798
-0.03662414
-0.05037109
-0.06404847
-0.06571838
-0.02559021
-0.02347229
-0.01141479
0.03839233
0.07401978
0.05175903
0.03558044
0.01948242
-0.02837463
-0.02027283
-0.02614136
-0.04392028
-0.05564086
0.00234741
0.00233582
0.01625427
0.04602294
0.06967225
0.06335389
0.05706726
0.03489196
0.01083740
-0.01110718
-0.01503113
-0.01893616
-0.00889160
0.02100281
0.05870788
0.04846435
0.04424255
0.04402161
0.02390137
-0.01203857
-0.03585815
-0.06751892
-0.05524109
-0.03506469
-0.01697937
-0.00694397
0.02294067
0.00889587
0.00288208
0.01281799
0.01872375
-0.00127014
-0.02315308
-0.01308716
-0.01700195
-0.03084717
-0.03666321
-0.00066040
0.00730347
0.00527649
0.01917969
0.03500427
0.01691956
-0.02296509
0.00500916
0.02687439
0.02872986
0.03256653
0.02046326
0.01240112
-0.01552063
-0.02738342
-0.00535645
0.02850037
0.02238831
0.01829651
0.02019470
-0.02766663
-0.01359802
-0.02149048
-0.01342224
-0.02529541
0.02060059
0.01253784
0.01048462
-0.00150818
0.03033936
-0.00165283
-0.03348388
-0.05520630
-0.06488037
-0.09042602
-0.10191346
-0.05762390
-0.06529602
-0.02118897
0.00876709
0.03459289
0.00855041
0.01845764
0.02632508
0.02221313
-0.00177734
-0.02166809
-0.02752991
-0.04132141
-0.05504517
-0.03885009
-0.04064514
0.00333740
-0.04045837
-0.00841675
0.01948608
0.05918823
0.04098206
0.07062684
0.03047363
-0.01146790
-0.01141052
0.00058594
0.01451355
0.04230041
0.05203857
0.01595825
-0.02392151
-0.02181152
-0.02767273
-0.04146362
-0.02931702
-0.01723022
-0.05097412
-0.03479980
0.01114441
0.00710876
0.01901306
0.02090759
0.00090271
-0.01701172
-0.01493652
-0.02879211
0.00120178
0.00318603
0.01710022
0.03890442
0.05462951
0.02848633
0.00645386
-0.02541870
-0.03325134
-0.01517517
-0.02106873
-0.02892395
0.00107056
0.02096558
0.01091125
0.02876709
0.05051269
0.02638000
0.01430786
0.00826660
0.02414490
0.02402405
0.03385376
-0.00611511
-0.01006531
-0.02593506
-0.02381531
-0.04757629
-0.04335815
-0.06304139
-0.04879638
-0.03661194
-0.03244873
0.02144348
0.04919677
0.02905091
0.00701538
0.02489014
-0.01702454
-0.04280884
-0.06249451
-0.04228210
-0.01819153
-0.00616028
0.02571045
0.04349121
0.01342346
-0.00057312
0.01534973
-0.01059692
-0.01850464
-0.01642212
-0.05016968
-0.04593872
-0.03575867
-0.04154968
-0.00353210
0.04623535
0.02610413
0.01602356
0.05773376
0.05147461
0.02335693
0.00731995
-0.00465637
-0.01458313
-0.03042969
-0.05415772
-0.01607727
0.00788330
0.00386353
-0.00212585
0.00783447
-0.03399536
-0.01591553
-0.02777649
-0.04554749
-0.00949951
0.02636780
0.03220581
0.04199462
0.06367493
0.04743713
0.02531006
-0.00665649
-0.02851379
-0.04230103
-0.02019897
0.01174194
0.01566345
0.01558533
0.05132751
0.02122131
0.01713501
0.02898926
0.03083374
-0.00315002
-0.01905457
-0.01696899
-0.01489380
-0.00885010
0.02104431
0.03088928
-0.00309509
-0.02497009
-0.03081482
-0.06449097
-0.07411866
-0.09165832
-0.06533020
-0.03714355
-0.02899719
0.00099792
0.05870300
0.03253906
0.04033691
0.06600463
0.06965455
0.03746643
0.04324829
-0.00074768
-0.02661438
-0.02847168
-0.02434937
-0.03417785
-0.04196655
-0.02583679
-0.03366760
-0.04543945
-0.04322204
-0.03902527
-0.01694092
0.00304321
0.02093872
0.03874389
0.04451965
-0.00545288
-0.01338501
-0.00734863
-0.01726196
-0.02513550
0.02872009
-0.00923340
-0.03306762
-0.00305237
0.04671264
0.01264892
0.02452576
0.05226318
0.03210205
-0.01183838
0.01608093
0.05182006
0.05952148
0.06917358
0.09071716
0.05842407
0.05614196
0.04193054
0.02182068
0.00181152
0.03165222
0.00562378
-0.03420410
-0.04995361
-0.03577393
-0.06942505
-0.06907776
-0.06873230
-0.03256836
-0.02245545
-0.03229309
-0.00626160
0.02162964
0.00958191
-0.01036560
-0.00633423
-0.05406250
-0.07369202
-0.04944335
-0.02133606
-0.01525940
0.00272644
-0.00524719
-0.05497070
-0.04872559
-0.02659241
-0.03441894
-0.02230713
-0.01224548
-0.00820374
0.00775696
0.02761841
0.04141052
0.04120361
-0.01074280
-0.06242919
-0.04022705
-0.01415588
0.01178528
0.03560547
0.04736755
-0.00261902
-0.00260559
-0.03841186
-0.03424011
-0.02013855
0.00384155
-0.04791748
-0.02379822
-0.03760864
-0.06130065
-0.07094421
-0.09247985
-0.22733764
-0.48689084
-0.83668632
-1.30811333
-1.95429248
-3.02708148
-3.81590604
-4.65451669
-5.38147401
-5.88788604
-5.87436676
-6.00220489
-5.91249418
-5.62423133
-5.14438056
-4.52961874
-3.84828071
-3.21014952
-2.78216886
-2.56925797
-2.50865173
-2.52993822
-2.57499814
-2.60789275
-2.61674308
-2.60962986
-2.59459161
-2.57763838
-2.56276082
-2.54994726
-2.53321719
-2.51060104
-2.48809814
-2.46769738
-2.44938898
-2.43714237
-2.42893671
-2.42475223
-2.42257857
-2.42041611
-2.41627383
-2.40817260
-2.39215135
-2.37223076
-2.35439968
-2.34461760
-2.33687424
-2.33116054
-2.32547473
-2.28996706
-2.08150744
-1.55767974
-0.93100156
-0.29352660
0.28504087
0.67962589
0.77970762
0.74595885
0.69645934
0.70093684
0.70937194
0.67199463
0.71241455
0.71482176
0.68935852
0.71178159
0.74802303
0.72438292
0.73668088
0.74493713
0.70141229
0.65810542
0.67471494
0.66537170
0.66403503
0.65673456
0.70519104
0.67380552
0.66446590
0.64323368
0.68578729
0.67638854
0.68892641
0.68747191
0.72781491
0.71422605
0.68478450
0.66743097
0.65613403
0.64091305
0.61979856
0.60276913
0.61965570
0.64043760
0.61733579
0.59832882
0.63911743
0.62995176
0.51934199
-0.53795471
-1.74916505
-2.99809913
-4.22884798
-5.34200382
-5.48643350
-5.45900154
-5.43170642
-5.40454816
-5.37752532
-5.25113773
-4.91444206
-4.40033054
-3.74152851
-3.09199094
-2.55117082
-2.22598505
-2.08152556
-2.08305788
-2.07662224
-2.06225895
-2.04796767
-2.03374814
-2.02357959
-2.01545166
-2.00736403
-1.99931793
-1.98932161
-1.97539482
-1.96551790
-1.95370016
-1.93995180
-1.93025207
-1.92458095
-1.91296777
-1.90738334
-1.89983644
-1.89033718
-1.87690582
-1.86354122
-1.85223350
-1.85889244
-1.84760799
-1.76672992
-1.54695644
-1.08351159
-0.47711391
0.13421173
0.64497070
1.06561577
1.21550750
1.21341001
1.23719298
1.23100709
1.20893216
1.17701721
1.20098197
1.15318691
1.18324160
1.16140496
1.19937837
1.17547142
1.18153405
1.13781619
1.10625731
1.08281612
1.10725188
1.07982575
1.11223626
1.16040527
1.16057312
1.15477013
1.16292655
1.14716184
1.09366571
1.07625734
1.02311587
1.00008964
0.96921930
1.00417292
1.00114250
1.01205682
1.00500607
1.00197136
0.97905149
0.98012571
0.96527519
0.95845880
0.99346675
0.99247922
0.96960697
0.97271909
1.01561582
0.99461784
0.96974487
0.95693597
0.96011171
0.92347106
0.94074335
0.97185974
0.97297058
0.95019588
0.97330446
0.96445741
0.92978515
0.91717643
0.96433105
0.96149959
0.94674196
0.93006772
0.96720705
0.94048099
0.92980833
0.89928951
0.89678277
0.90224847
0.86589717
0.87151794
0.89900026
0.92634515
0.89385309
0.90530452
0.86694755
0.81883354
0.81871881
0.82059564
0.83440246
0.84416017
0.85585937
0.81177978
0.80573120
0.79971246
0.77382383
0.75602536
0.78010492
0.77620420
0.74844293
0.79644103
0.80439872
0.76853699
0.77862424
0.79662108
0.74288816
0.78096370
0.82879943
0.82266540
0.81059198
0.81051940
0.77064633
0.73097348
0.69149837
0.70396051
0.73029112
0.73459959
0.72694702
0.75117187
0.72552609
0.73184871
0.74410943
0.74237914
0.70682673
0.71324276
0.66191711
0.65263791
0.65136532
0.64611816
0.65482788
0.65951352
0.65422544
0.66289424
0.66355895
0.66621155
0.65690975
0.61979551
0.62465639
0.63546323
0.62034606
0.61326413
0.63805723
0.62292785
0.60588254
0.60882263
0.61771850
0.60866026
0.59964656
0.59863829
0.59962520
0.62050657
0.62337398
0.60831727
0.59930601
0.58635988
0.55954771
0.57664976
0.59963617
0.60459842
0.56973509
0.59872679
0.58578305
0.56096372
0.54820861
0.57332758
0.54260129
0.50207824
0.54732789
0.58041076
0.58148860
0.59649109
0.61539916
0.57252197
0.57761902
0.58070068
0.59371762
0.59671874
0.58776550
0.54502625
0.55424127
0.52559995
0.51501221
0.55223693
0.59325556
0.56441888
0.54567689
0.57478818
0.57191410
0.54716491
0.53049860
0.52386660
0.47149715
0.45520935
0.45492367
0.44866881
0.49020566
0.52755494
0.51496701
0.50045228
0.49993953
0.44569945
0.44745116
0.45516414
0.44492797
0.43076415
0.45448060
0.45021786
0.43005676
0.43785643
0.43765745
0.45337953
0.41529293
0.39928588
0.42713928
0.45883359
0.44459900
0.47421631
0.49373474
0.44549617
0.45321898
0.45095272
0.43277831
0.45250425
0.48805174
0.46571164
0.44547300
0.43528561
0.38932981
0.38340270
0.38546630
0.38353940
0.36769104
0.38774290
0.37187438
0.37996520
0.41189513
0.41381530
0.39383604
0.40579710
0.40575804
0.38979916
0.40377011
0.41966185
0.40562314
0.37573547
0.34798643
0.37609677
0.37023682
0.35843565
0.38848325
0.40843076
0.37454833
0.35277523
0.37688171
0.35907652
0.32942137
0.35762450
0.38170652
0.35790772
0.33024778
0.37635681
0.36054503
0.35874266
0.34500856
0.39104368
0.37913880
0.35734314
0.33167662
0.35986816
0.33020935
0.29074766
0.28531432
0.30776734
0.29229917
0.32466735
0.36881468
0.38289001
0.38296567
0.37508118
0.32743527
0.32181882
0.32418944
0.29470825
0.28527464
0.30971801
0.30617918
0.29469787
0.29919433
0.29371824
0.31015930
0.31855895
0.33288633
0.34714112
0.39913573
0.38918029
0.36534423
0.34560728
0.36974911
0.35397031
0.33031067
0.32666931
0.35289549
0.33521118
0.30169491
0.27829649
0.25501525
0.23184995
0.22870116
0.22755737
0.21447937
0.05420654
-0.30824522
-0.81415405
-1.37524354
-1.94944725
-2.37352037
-2.60841250
-2.69686079
-2.70327687
-2.67185044
-2.64257097
-2.62139821
-2.60829162
-2.59923028
-2.59419417
-2.58719325
-2.57823729
-2.56932592
-2.55647921
-2.54170656
-2.52899765
-2.51834249
-2.50575089
-2.49521207
-2.48472595
-2.47429251
-2.45993089
-2.44763112
-2.43738341
-2.43912625
-2.45678067
-2.48230695
-2.50372529
-2.49916648
-2.43891072
-2.33119630
-2.23596024
-2.18896055
-2.20388579
-2.27644586
-2.36257386
-2.37663102
-2.46225833
-2.44994688
-2.31033658
-2.24306464
-2.29751968
-2.26215195
-2.27074098
-2.33898735
-2.28948235
-2.12878465
-1.96491088
-1.88941650
-1.93767938
-2.07525086
-2.23402452
-2.30245471
-2.22527289
-2.05295586
-1.90737152
-1.86400451
-1.92433462
-2.03809285
-2.11148238
-2.05515551
-1.87771997
-1.69719171
-1.62104582
-1.66667118
-1.77972769
-1.87828912
-1.86690759
-1.71429309
-1.50274133
-1.37184786
-1.36896848
-1.46162376
-1.57371578
-1.62156734
-1.52788934
-1.32523036
-1.12955439
-1.09405672
-1.09455621
-1.10500359
-1.08355867
-0.98660097
-0.78266811
-0.67726469
-0.70173859
-0.80170993
-0.90914125
-0.93643550
-0.84021301
-0.67880220
-0.57988829
-0.61280879
-0.75103516
-0.91842002
-1.02327787
-0.99030151
-0.83610019
-0.67669982
-0.62754635
-0.70798854
-0.86165866
-0.99465999
-1.02749693
-0.92882928
-0.76100521
-0.65770015
-0.70416164
-0.85785093
-1.03465151
-1.15086853
-1.13914430
-1.00011837
-0.84387788
-0.79587860
-0.87547912
-1.02035188
-1.14062011
-1.09113704
-0.98021144
-0.89173030
-0.86538181
-0.89886503
-1.01974058
-1.04847228
-0.93775968
-0.74402098
-0.59702115
-0.58408598
-0.68464536
-0.81256189
-0.89605922
-0.85774898
-0.69824032
-0.50967893
-0.40962066
-0.44339232
-0.56057524
-0.67916254
-0.71954650
-0.63435912
-0.44611725
-0.28667661
-0.24146332
-0.31388580
-0.43370666
-0.52904815
-0.50849299
-0.37660064
-0.18566772
-0.07329926
-0.08487274
-0.19986846
-0.31826903
-0.37637755
-0.29688537
-0.12028107
0.20270080
0.55391693
0.76009731
0.89559659
1.05031859
1.13660705
1.14087402
1.24262940
1.32596647
1.37704706
1.37016177
1.34938073
1.33865356
1.32201015
1.30943024
1.28497314
1.30043852
1.27204620
1.28956544
1.18162811
1.02845942
0.89794740
0.84569759
0.79370908
0.83351984
0.91293239
0.93423738
0.93155603
0.98460807
1.04336547
1.10182833
1.20178949
1.23558044
1.20552217
1.15372467
1.16188538
1.13219630
1.15837526
1.13666319
1.17077970
1.15099632
1.16116082
1.12351500
1.14774751
1.16986846
1.17993927
1.18398952
1.18204927
1.17016899
1.11456811
1.10501492
1.12137973
1.11776304
1.12809419
1.13041436
1.13670194
1.08922874
1.10965240
1.08221376
1.09471249
1.06734955
1.08788240
1.07647311
1.08701049
1.08356534
1.06819760
1.07081663
1.06347227
1.05815494
1.03296387
1.06560909
1.05431151
1.05102968
1.04776489
1.03655576
1.02938234
0.99438533
1.00732421
0.99233760
1.00130546
0.96644897
0.99345703
0.98052978
0.96766719
0.94292907
0.95015373
0.91555299
0.92092523
0.94219112
0.94742975
0.97652225
0.98756036
0.96272211
0.96387815
0.98094911
0.94221429
0.92954339
0.95275573
0.94202213
0.93333187
0.92269525
0.94594116
0.92131099
0.90277462
0.88234062
0.87394962
0.86360960
0.86327152
0.83109560
0.82096977
0.85865535
0.86033143
0.84607973
0.85776977
0.84950075
0.80147399
0.79746704
0.80541925
0.80935297
0.81724548
0.85494928
0.84868469
0.83847160
0.82432918
0.81622734
0.80219602
0.79818482
0.78424377
0.78032226
0.77244081
0.73474855
0.71117491
0.71955928
0.71397156
0.71040220
0.70685057
0.69137630
0.70582942
0.73215026
0.75435972
0.76650815
0.79451537
0.77263302
0.74091000
0.74317502
0.74144959
0.70391173
0.71830263
0.73262081
0.71104793
0.68958187
0.73588438
0.70036559
0.68293390
0.67553892
0.67017211
0.64493103
0.64369688
0.61858825
0.63738584
0.66404905
0.65873837
0.63554439
0.68211669
0.68666625
0.68920283
0.68575677
0.69824886
0.66490721
0.61382322
0.61672358
0.57184991
0.55705075
0.58013610
0.57524533
0.55644893
0.56560606
0.52695856
0.44671387
0.43652038
0.37463805
0.33694458
0.36311950
0.39115417
0.43695859
0.49049377
0.55172114
0.52508239
0.49459652
0.45431394
0.44209289
0.42993288
0.44967222
0.51508421
0.53041868
0.50985660
0.46949706
0.50495967
0.50840454
0.52974300
0.57286434
0.61576962
0.57289123
0.49838681
0.42027463
0.38036313
0.34861145
0.38268799
0.42853512
0.45027217
0.40225095
0.33257994
0.27320618
0.24597046
0.26862120
0.26130797
0.27592160
0.29444212
0.29893981
0.28152524
0.35374755
0.41764888
0.39168090
0.33599243
0.28456296
0.25926022
0.25199339
0.29053344
0.34679076
0.36296691
0.30145263
0.20840516
0.15562317
0.18071532
0.24747130
0.32384397
0.38789426
0.35212521
0.23892455
0.16608947
0.13341857
0.14668212
0.22952940
0.29803159
0.27664122
0.20759766
0.12894958
0.11238465
0.15361267
0.23443360
0.32281126
0.38487731
0.34912230
0.23394713
0.14919676
0.12258057
0.13589721
0.14914793
0.15437195
0.10186097
0.03767150
0.01758301
0.06127502
0.15847899
0.26514647
0.27377076
0.18086181
0.06453797
-0.01538513
-0.02923828
0.04652771
0.19952453
0.25623717
0.19525573
0.08482910
-0.00514465
-0.08471923
-0.06837525
0.03345642
0.11885926
0.12423462
0.03605407
-0.05168640
-0.10913758
-0.11655212
-0.07815918
0.01377136
0.06345276
0.03527527
-0.04848083
-0.13380860
-0.18487854
-0.17201477
-0.10150451
0.01044312
0.04024109
-0.01766968
-0.06136169
-0.07299438
-0.09451966
-0.04628723
-0.00426575
-0.06991455
-0.19095458
-0.26362977
-0.29216184
-0.26881101
-0.27741696
-0.20240049
-0.16556823
-0.16275024
-0.19178649
-0.19480773
-0.29532348
-0.36548643
-0.41738891
-0.40336179
-0.30980529
-0.20079588
-0.18387205
-0.25260255
-0.34486937
-0.40682497
-0.42867064
-0.38672728
-0.27335386
-0.20034668
-0.21924498
-0.31167907
-0.38773071
-0.45146179
-0.45517516
-0.40115904
-0.30164365
-0.27227540
-0.32265379
-0.40860109
-0.42446837
-0.42831544
-0.38438415
-0.32674255
-0.31714904
-0.39715332
-0.45486755
-0.49438233
-0.47002134
-0.36817135
-0.27877016
-0.28334714
-0.35158019
-0.43340210
-0.49292540
-0.49046082
-0.41238889
-0.30684690
-0.23566284
-0.26234436
-0.36053280
-0.44430055
-0.46993894
-0.45166988
-0.35190124
-0.23870239
-0.20964782
-0.29018979
-0.37629880
-0.44804806
-0.47366757
-0.43746948
-0.33180236
-0.25651307
-0.26717102
-0.33747556
-0.40344848
-0.43128113
-0.43310484
-0.36725950
-0.34353330
-0.37962584
-0.42548766
-0.43927974
-0.45101318
-0.38706784
-0.27966308
-0.24443418
-0.29694213
-0.38102722
-0.44678158
-0.48235807
-0.46800627
-0.38805601
-0.30850586
-0.30497312
-0.38304807
-0.45874300
-0.51415958
-0.52949886
-0.48108186
-0.36922667
-0.30171017
-0.34597227
-0.43379178
-0.50127286
-0.54453668
-0.53584380
-0.45356473
-0.36174740
-0.34998898
-0.42186889
-0.50930972
-0.55452356
-0.57563047
-0.53494262
-0.42878780
-0.36495420
-0.39895019
-0.43078522
-0.45052123
-0.46617827
-0.41608762
-0.32047791
-0.30892577
-0.36111083
-0.41104550
-0.43884034
-0.41475644
-0.30124268
-0.18033629
-0.15157470
-0.28016721
-0.50562648
-0.73592834
-0.88149843
-0.91888122
-0.84065608
-0.71108336
-0.65777769
-0.69826869
-0.75646729
-0.77656488
-0.75875182
-0.66938781
-0.54067106
-0.47030763
-0.50576629
-0.59278717
-0.65947351
-0.69597625
-0.67657651
-0.59558410
-0.48912596
-0.46678037
-0.53011627
-0.61502561
-0.66170101
-0.65640258
-0.60337095
-0.54662442
-0.54389133
-0.58893213
-0.65165767
-0.68819947
-0.65490841
-0.56009397
-0.47570405
-0.48526549
-0.54850916
-0.62536649
-0.67596983
-0.67458004
-0.60752716
-0.49901914
-0.44677429
-0.48633055
-0.57543849
-0.63823118
-0.68080959
-0.63959531
-0.52495760
-0.43278288
-0.42066864
-0.49418516
-0.57728390
-0.64404783
-0.65276794
-0.60572414
-0.57284574
-0.50232119
-0.45602936
-0.43583955
-0.47744016
-0.49893279
-0.57205810
-0.62292814
-0.71732358
-0.81323728
-0.85096092
-0.86262626
-0.87622318
-0.82209224
-0.70654201
-0.64131927
-0.67393250
-0.75016298
-0.81407222
-0.85378170
-0.83558225
-0.73787446
-0.63667511
-0.62354154
-0.68808374
-0.76424283
-0.82211208
-0.83392152
-0.77602171
-0.66269164
-0.59569792
-0.62256984
-0.70303649
-0.76320128
-0.80117521
-0.78721952
-0.70567350
-0.60662469
-0.58369140
-0.64246273
-0.71288056
-0.75508604
-0.77519073
-0.74146451
-0.64422726
-0.56538605
-0.58245878
-0.65516662
-0.66980037
-0.68237152
-0.66900968
-0.60795469
-0.56909542
-0.63988008
-0.71429042
-0.76245880
-0.78451657
-0.73283386
-0.62966976
-0.57279148
-0.61171751
-0.68029875
-0.73261718
-0.76477413
-0.74304013
-0.64778499
-0.55101623
-0.53632111
-0.59333949
-0.66002283
-0.70249295
-0.70893068
-0.65762572
-0.55881776
-0.49035339
-0.50979156
-0.57490296
-0.62575836
-0.65048952
-0.63927702
-0.55847072
-0.45816831
-0.43398742
-0.49350738
-0.56466979
-0.61955652
-0.64829864
-0.59729738
-0.54058103
-0.54583797
-0.59285883
-0.62770471
-0.65839629
-0.62326412
-0.51268796
-0.41858458
-0.41848173
-0.48802914
-0.55523924
-0.60818295
-0.60315217
-0.53247618
-0.40643401
-0.35266172
-0.39069822
-0.47431488
-0.52368350
-0.55688533
-0.53022093
-0.43403992
-0.32440977
-0.31283781
-0.36301329
-0.41094818
-0.43277373
-0.43259978
-0.34486663
-0.21180267
-0.10925354
-0.08880738
-0.11821351
-0.15145232
-0.19049530
-0.25521268
-0.29970672
-0.34994840
-0.40988860
-0.46156921
-0.44732179
-0.40727477
-0.38732848
-0.42320189
-0.46088590
-0.49639186
-0.50584988
-0.44362058
-0.32797269
-0.28255310
-0.31696045
-0.39497556
-0.45270080
-0.49620757
-0.46586637
-0.36204710
-0.25874695
-0.26143310
-0.33574614
-0.40968747
-0.46335906
-0.48691191
-0.42875761
-0.31318356
-0.25191771
-0.28448820
-0.35072569
-0.41066222
-0.45039854
-0.43222656
-0.34449582
-0.24128324
-0.22017669
-0.28673553
-0.36092190
-0.40289731
-0.41680297
-0.36496887
-0.29548401
-0.27808654
-0.31649594
-0.35272338
-0.37085967
-0.32920529
-0.22208952
-0.12545897
-0.13080201
-0.19581756
-0.25453855
-0.29704618
-0.29556088
-0.20652282
-0.07216034
-0.01806946
-0.07170929
-0.15692077
-0.20389618
-0.24864654
-0.22352356
-0.10897583
-0.01092072
-0.01882629
-0.08639222
-0.14765045
-0.20462219
-0.21951935
-0.16071166
-0.05443847
-0.01237640
-0.05211456
-0.12946380
-0.18851654
-0.21344389
-0.19446685
-0.10991486
-0.01583527
-0.02172607
-0.07136750
-0.10086090
-0.12423645
-0.13157532
-0.07121735
-0.04300109
-0.09253602
-0.17366333
-0.23448517
-0.26913266
-0.23395721
-0.13527740
-0.05898101
-0.06863617
-0.13396300
-0.20493316
-0.24967863
-0.24047026
-0.16563811
-0.06531005
-0.02717346
-0.07479767
-0.14805358
-0.20104339
-0.22789793
-0.20088865
-0.10834412
-0.01228241
-0.01222076
-0.08180970
-0.15304076
-0.20600554
-0.21890563
-0.15214110
-0.03994049
0.01398926
-0.02787048
-0.11927125
-0.18633453
-0.22520294
-0.18825683
-0.11965576
-0.09119781
-0.11860169
-0.15382872
-0.19484954
-0.18392545
-0.10141601
0.00058136
0.03241821
-0.01550354
-0.08905610
-0.14632110
-0.17145934
-0.12284209
-0.01675781
0.06491577
0.05464141
-0.01727173
-0.09280549
-0.13413177
-0.13744109
-0.06909363
0.03871154
0.09025787
0.04801666
-0.02784332
-0.08541412
-0.11085723
-0.08841278
0.00754913
0.11696137
0.13627654
0.06992524
0.00390533
-0.04984436
-0.06551545
-0.02140808
0.07819885
0.14546782
0.09300080
0.05472565
0.03455200
0.02243957
0.05814728
0.15536620
0.15458923
0.08217621
0.00415558
-0.06750519
-0.08109771
-0.02497223
0.09256256
0.15776977
0.13111083
0.04687530
-0.02499878
-0.06865387
-0.06035034
0.02552155
0.14081358
0.18189971
0.21482024
0.23563628
0.17276793
0.06245391
0.02632141
0.00429993
0.00228821
0.06595673
0.19696685
0.26762237
0.24041411
0.16160155
0.09114349
0.02302765
0.01097229
0.09250763
0.21343536
0.27007782
0.23489775
0.16407318
0.15131256
0.15254607
0.23934295
0.42719635
0.61609983
0.68266935
0.65537624
0.57249937
0.47809658
0.43590602
0.43372650
0.51513791
0.61007232
0.64483184
0.59384765
0.51525821
0.46094236
0.42878751
0.45052337
0.55971097
0.70417237
0.78423185
0.74449033
0.68703823
0.63584318
0.61873350
0.64548978
0.77161254
0.85133447
0.83513755
0.74141206
0.66208462
0.60703492
0.60996913
0.67258911
0.77668666
0.81459293
0.77071990
0.69920654
0.64994077
0.60092067
0.60388641
0.68444671
0.70092434
0.65960998
0.62845182
0.63326930
0.63607330
0.72443237
0.83025999
0.86192903
0.78398895
0.68056879
0.60552577
0.56468839
0.57181491
0.68636565
0.78243374
0.78051142
0.69899897
0.61590390
0.52327451
0.50274844
0.55197477
0.64473481
0.70320129
0.66386504
0.55706601
0.48662080
0.43244748
0.41635499
0.47397308
0.57110319
0.61799740
0.56714749
0.49267182
0.42851805
0.38657560
0.37071318
0.46636929
0.55955719
0.57467007
0.51010680
0.42795619
0.35218625
0.33052518
0.38061248
0.42646942
0.43428711
0.38435575
0.35656430
0.33488128
0.34514646
0.40511078
0.50059509
0.47819213
0.39620115
0.32656035
0.28114807
0.24392180
0.30041196
0.40438017
0.49190826
0.45959868
0.47919096
0.42505493
0.30949950
0.21243224
0.21734008
0.17247376
0.21340086
0.30188415
0.39191465
0.40985531
0.35407652
0.25877623
0.21569213
0.18874388
0.21367003
0.31409180
0.38416137
0.33647034
0.25916810
0.19817198
0.14544128
0.13277404
0.19977050
0.28434143
0.24311950
0.19613403
0.17923278
0.15843688
0.13774476
0.23854613
0.31496336
0.27756896
0.19459105
0.14187805
0.09738892
0.07302186
0.13434691
0.23914489
0.26779909
0.23064024
0.14988708
0.08943787
0.04322021
0.05693420
0.13425964
0.23507812
0.23589293
0.17302367
0.10051879
0.05424621
0.03407470
0.06972413
0.17484557
0.24959106
0.24436278
0.16155149
0.10104371
0.06670837
0.07234497
0.11377381
0.21867492
0.27131102
0.20229430
0.10576294
0.05349365
0.01740540
0.02527893
0.09878235
0.13012816
0.09166748
0.03946899
0.00942200
0.01335510
0.07696777
0.18404294
0.22292296
0.16409850
0.06974792
0.01566895
-0.02221924
-0.01016785
0.06550293
0.15074462
0.14601135
0.07563172
0.00958313
-0.03026489
-0.06195312
-0.01388367
0.09364562
0.17476744
0.16593383
0.08948426
0.00744629
-0.05826049
-0.06990967
-0.00787048
0.10957885
0.16077147
0.11419799
0.03203674
-0.01986389
-0.06553467
-0.05724670
0.03656921
0.15379700
0.19083800
0.14809386
0.09760314
0.13492491
0.16609070
0.24286987
0.33120541
0.33750915
0.17264220
0.00461914
-0.15858459
-0.24933166
-0.22420530
-0.13353453
-0.11694703
-0.14223204
-0.16341124
-0.18448485
-0.18555206
-0.10502471
0.02883057
0.11624634
0.08979553
0.01173645
-0.04603271
-0.10152221
-0.10698456
-0.02684875
0.09268493
0.12605102
0.07169067
-0.00229797
-0.05402648
-0.08957642
-0.06922852
0.02464783
0.11407471
0.10156494
0.02344666
-0.03836059
-0.07398926
-0.11341919
-0.05315185
0.05656372
0.02444092
-0.03538147
-0.04913391
-0.07276856
-0.10424469
-0.00422424
0.06544678
0.03526978
-0.04450684
-0.09801392
-0.13732360
-0.14459686
-0.06825379
0.04949707
0.07312989
0.01903381
-0.05270142
-0.09223724
-0.12759643
-0.08715821
0.04063721
0.14988403
0.12724425
0.04501831
-0.02684692
-0.09835266
-0.11975098
-0.06940246
0.03840454
0.09393311
0.06162353
-0.02425415
-0.07587342
-0.18494384
-0.23376951
-0.20275084
-0.13208739
-0.06973724
-0.00570862
-0.03752014
-0.05723266
-0.07883637
-0.11028199
-0.07988099
-0.00386169
-0.03966187
-0.11707367
-0.17220885
-0.19721801
-0.21016235
-0.14145171
-0.01139465
0.01652283
-0.06116973
-0.12852417
-0.16171171
-0.21662352
-0.17375061
-0.07537232
0.00858459
-0.00936768
-0.07897126
-0.15618620
-0.20117492
-0.21608917
-0.14137877
-0.02525147
0.02263428
-0.02324951
-0.10671327
-0.17582946
-0.21276030
-0.18383666
-0.10331788
-0.00330139
-0.00328491
-0.07490844
-0.14020416
-0.18527343
-0.21021728
-0.14548614
-0.08704864
-0.11646332
-0.14573150
-0.16092345
-0.18200836
-0.15124846
-0.03706238
0.04073303
0.02062927
-0.05111359
-0.10060821
-0.14587523
-0.15111602
-0.05881988
0.06286377
0.10433961
0.05804810
-0.02383179
-0.09933258
-0.14659667
-0.12198364
-0.03182373
0.06584534
0.07148621
-0.00250061
-0.06616821
-0.10563721
-0.11903901
-0.08859345
0.00935974
0.06105285
0.03089783
-0.05283691
-0.10829255
-0.13959045
-0.14088256
-0.06654816
0.03925476
0.06492858
0.02480408
0.00478027
-0.01315308
-0.02303772
0.03080749
0.06846374
0.02633118
-0.04146057
-0.06513337
-0.06679779
-0.01671387
0.10475952
0.23358581
0.27221801
0.25493714
0.21187193
0.17499266
0.11839722
0.08198548
0.05968506
0.00764648
-0.11378144
-0.23460204
-0.29710936
-0.31552367
-0.29006590
-0.19707550
-0.06673980
-0.00073608
-0.02660217
-0.05631927
-0.06598786
-0.08356781
-0.06126037
0.03456665
0.12394348
0.10740295
0.04517578
-0.00678955
-0.01272583
-0.10022217
-0.05196105
0.04182861
0.13315917
0.13448302
0.16366027
0.08523193
0.02510559
-0.01880005
-0.01671631
0.04903748
0.15625183
0.19527036
0.14653443
0.06819214
0.03203064
0.00600098
0.03781128
0.13911132
0.24587585
0.26056578
0.20354309
0.11894470
0.05466980
0.02255737
0.05428405
0.16943298
0.27206542
0.26075501
0.20771179
0.15294311
0.09645813
0.07607543
0.15927491
0.25399901
0.30645873
0.25915648
0.18821043
0.12955993
0.09508179
0.10057617
0.21350340
0.31790587
0.26855649
0.23338439
0.20833740
0.18142578
0.18051879
0.31692626
0.35713195
0.30360655
0.21452817
0.16370544
0.10915650
0.13050048
0.22138855
0.32177124
0.33011231
0.26080200
0.18984802
0.15108885
0.12247314
0.15967041
0.25837218
0.33668029
0.31708738
0.24187192
0.15907287
0.11250793
0.09204529
0.16521544
0.27184872
0.35208008
0.31250915
0.23134641
0.16651000
0.12786743
0.10931763
0.19235107
0.30083920
0.32719480
0.27580871
0.21472959
0.14997619
0.10345581
0.12084839
0.18392395
0.17504454
0.13436889
0.11777709
0.10723816
0.12262207
0.20956907
0.31200194
0.32636108
0.26303892
0.19406372
0.15727355
0.13459717
0.16974425
0.26043579
0.33674314
0.32510924
0.25383362
0.19286437
0.15408995
0.13341917
0.18051208
0.28507933
0.34733338
0.32370605
0.25840818
0.20139524
0.15262877
0.14390563
0.22875609
0.37089231
0.40883789
0.36699340
0.28953919
0.21844115
0.14769897
0.16486999
0.27150511
0.38158750
0.39161987
0.31802124
0.25076050
0.19776733
0.20672850
0.25544431
0.32381713
0.32020750
0.27482604
0.21176209
0.19677306
0.21170897
0.31214048
0.42201962
0.42587890
0.34414978
0.27476928
0.22165527
0.18870727
0.23950378
0.36566588
0.44940795
0.42328062
0.33559446
0.27023620
0.23107483
0.22593932
0.29843993
0.40639772
0.44615597
0.38422484
0.31066343
0.26532957
0.23216369
0.25488219
0.34713804
0.44689207
0.45261778
0.38667419
0.31509091
0.27968568
0.26037719
0.30285522
0.40681090
0.50626707
0.47786560
0.50731630
0.47890930
0.49840512
0.51382260
0.60876340
0.64551935
0.67612180
0.60707149
0.53040590
0.47800412
0.45571413
0.49522581
0.56836915
0.66701722
0.65174193
0.56888303
0.50235896
0.46999692
0.44177670
0.50523800
0.62609190
0.66873168
0.64747738
0.57459044
0.51400756
0.45372738
0.47533874
0.53664183
0.60161867
0.63841004
0.61929807
0.54257144
0.48413877
0.49962825
0.54091000
0.57800536
0.64476499
0.68930110
0.67590451
0.62277526
0.57190184
0.56506223
0.60203671
0.60897641
0.62185182
0.65655274
0.61546020
0.53079280
0.53609857
0.58714842
0.61207208
0.68065185
0.74689817
0.74913330
0.66578731
0.60673828
0.57385439
0.57098507
0.54226012
0.56143922
0.58848199
0.56165890
0.48323059
0.45892391
0.46458921
0.50803651
0.52539610
0.56057925
0.56175656
0.51317744
0.41509156
0.40903563
0.44281063
0.45651612
0.52587342
0.59886412
0.59785947
0.49935059
0.45705380
0.44282836
0.41872434
0.42459044
0.48216733
0.50761599
0.44338803
0.37351012
0.31194276
0.24272339
0.23554015
0.31595215
0.40790162
0.47153258
0.53882446
0.49633054
0.36449887
0.26118590
0.24794006
0.27854063
0.36271727
0.43652400
0.43235106
0.32670898
0.21164610
0.18869750
0.20566406
0.28622617
0.38031433
0.39234313
0.27496094
0.19398620
0.13729614
0.11670960
0.17582581
0.28041625
0.33672485
0.29126098
0.21418519
0.14545347
0.10492615
0.09843200
0.16559996
0.24238219
0.26704099
0.19406615
0.11946594
0.07309876
0.04885253
0.06850769
0.12786498
0.12722594
0.08679017
0.05650573
0.06020386
0.07582276
0.15703368
0.25176880
0.27041015
0.18746765
0.13080992
0.08438598
0.06406433
0.12145385
0.25616636
0.34443542
0.34470274
0.28924927
0.19825256
0.13159058
0.13889342
0.20983886
0.32619996
0.39620849
0.36437745
0.26106629
0.19807066
0.13140990
0.14070250
0.22755918
0.32194089
0.34421143
0.31463012
0.23743712
0.18450988
0.15970764
0.21462891
0.31305601
0.41895017
0.44670529
0.40865173
0.30511841
0.21205322
0.22890257
0.26357846
0.33589050
0.38595092
0.40591125
0.30040159
0.23521971
0.24598388
0.29649353
0.25521059
0.33751463
0.38756713
0.36970887
0.34796020
0.39796018
0.31836059
0.26900877
0.29154357
0.30799622
0.35819518
0.42207460
0.47170467
0.44347591
0.42334837
0.44312195
0.42697629
0.42882199
0.40478758
0.26346373
0.04324646
-0.06045043
-0.12780822
-0.12915892
-0.02304321
0.13428162
0.21321043
0.19821411
0.14747314
0.12484619
0.11228150
0.11768982
0.16685180
0.16004760
0.15526733
0.16245055
0.19944885
0.19845152
0.28700866
0.28756284
0.20254516
0.10601196
0.06369262
0.04347412
0.09101623
0.17812071
0.21106019
0.17219421
0.07382325
0.02569397
0.03750549
0.07512818
0.19415283
0.31656250
0.31696896
0.21986451
0.15309569
0.07670959
0.04448547
0.11391296
0.21682372
0.28140928
0.25413205
0.19117126
0.10066528
0.05638244
0.06007995
0.14335999
0.22821288
0.27483153
0.25355710
0.18065002
0.10412598
0.08370544
0.14298706
0.22187194
0.29837217
0.31280028
0.26347656
0.17260925
0.14587585
0.14116698
0.18225097
0.24302978
0.28758482
0.25231626
0.19334472
0.16451842
0.18359558
0.19859741
0.23342406
0.29792723
0.32628784
0.27689635
0.20586180
0.16503233
0.17017699
0.18126585
0.24602966
0.34828000
0.37041807
0.30886597
0.22374205
0.15496337
0.14622802
0.19524718
0.25397095
0.33031127
0.31472959
0.21564636
0.12899780
0.15422302
0.17733154
0.21425476
0.27089295
0.31132812
0.25803101
0.16520080
0.14049499
0.19352233
0.24230468
0.27890257
0.32128844
0.32963194
0.24042418
0.20141174
0.18050475
0.19552245
0.20648498
0.27311217
0.27970643
0.24447753
0.20942566
0.24021849
0.24896726
0.26364195
0.31804320
0.38411316
0.37224242
0.34451107
0.32089843
0.30934386
0.27197754
0.24872741
0.26340391
0.28596677
0.28254699
0.29506408
0.29955868
0.26224122
0.25496032
0.25965514
0.25437684
0.29688474
0.34117064
0.35339536
0.36754820
0.38760068
0.36775267
0.33208372
0.29659361
0.28715085
0.27974486
0.26242675
0.25912413
0.25981874
0.26846983
0.26115722
0.24990172
0.28845214
0.31487059
0.29737610
0.30384886
0.31028990
0.28883850
0.27545409
0.26810607
0.24089536
0.23173096
0.25246276
0.26711974
0.25782408
0.25852537
0.29305295
0.29357788
0.29012023
0.32249999
0.34675719
0.32711362
0.28567810
0.26832885
0.22917723
0.24395201
0.25865232
0.26332883
0.25405213
0.25676207
0.21567809
0.21857910
0.24932618
0.26797974
0.28057004
0.30105712
0.29358153
0.25231382
0.22717285
0.23598692
0.24276671
0.21369323
0.21063475
0.20162169
0.22847349
0.25121033
0.28179443
0.31421568
0.33254454
0.29307188
0.29160642
0.30009827
0.30854735
0.33884401
0.34511046
0.30358457
0.25231690
0.20528502
0.15848875
0.13580627
0.15104736
0.20203247
0.22689268
0.27948732
0.30992980
0.32231078
0.29880919
0.28537475
0.23021788
0.23304686
0.23387145
0.22673218
0.22758848
0.22844054
0.19147887
0.18654113
0.20152769
0.20251038
0.22537779
0.21629090
0.21918883
0.19421325
0.18130187
0.20228576
0.25301389
0.23781921
0.25653014
0.26121764
0.20817198
0.15937132
0.12275513
0.13010131
0.12945067
0.15069335
0.14794982
0.20492002
0.16011595
0.17523558
0.18032897
0.20927734
0.15450133
0.15372862
0.15495056
0.15616514
0.14742431
0.15663756
0.16779479
0.14307556
0.12246034
0.09796875
0.08553894
0.12292114
0.14618651
0.14744567
0.15267760
0.15589476
0.11133484
0.11873840
0.14998473
0.17908507
0.21599915
0.22884948
0.22173521
0.18082702
0.17196288
0.13130309
0.12268676
0.09023315
0.08978149
0.11520264
0.14845643
0.14572387
0.15494506
0.16014038
0.12351928
0.10101196
0.12040711
0.14766478
0.17080627
0.18786253
0.18891296
0.15811827
0.15135802
0.15259094
0.13192809
0.11932801
0.17047119
0.18553831
0.16869078
0.18177734
0.18484861
0.14014403
0.10760437
0.10905579
0.11249023
0.13182799
0.14111876
0.11852295
0.13783019
0.11923096
0.10669494
0.09422120
0.10569031
0.08128174
0.11470520
0.13204100
0.15725097
0.18233396
0.19535278
0.15656615
0.12792235
0.14121336
0.14448730
0.14973449
0.18082641
0.20181212
0.17294250
0.14421751
0.10767639
0.06534790
0.05507141
0.06275635
0.05050232
0.05422974
0.09574891
0.10919983
0.12059388
0.16974060
0.20471191
0.20169799
0.20267944
0.19569580
0.18078735
0.17789366
0.15312378
0.12449829
984557
0.14312683
0.14639160
0.14963927
0.14093139
0.10042724
0.05017518
0.05589416
0.07949462
0.13879699
0.17989318
0.21083374
0.21375916
0.20672056
0.17981626
0.15304749
0.12044190
0.06411987
0.07175903
0.05747009
0.09698242
0.10246765
0.15966491
0.15886657
0.17200194
0.15323181
0.16639587
0.11581422
0.11722474
0.10071777
0.08827453
0.08186280
0.10931335
0.07891663
0.08648254
0.07013001
0.08570008
0.10318115
0.11261475
0.09016174
0.13150146
0.12288391
0.08644897
0.05616699
0.09966613
0.04742737
0.07704041
0.06073547
0.10620179
0.10368041
0.13301147
0.09453675
0.09207397
0.05579407
0.05551514
0.06916687
0.10066101
0.15388793
0.17898864
0.16615356
0.13348327
0.09102540
0.04281067
0.01274658
0.02064270
0.05436890
0.09190734
0.13721740
0.16638122
0.15758972
0.12098144
0.08256653
0.03041382
-0.00356750
-0.01150940
0.01043762
0.03625610
0.04602478
0.05574463
0.07934510
0.04710937
0.06080322
0.10228942
0.12764769
0.10710937
0.12448425
0.08008178
0.04784118
0.03168213
0.01162415
0.04141602
0.08498901
0.11640380
0.10388184
0.11132262
0.07295532
0.07458069
0.07022828
0.10370666
0.10716857
0.11459228
0.07222901
0.03007751
0.00007690
0.01002624
0.03385620
0.05955627
0.08313904
0.09864318
0.10412048
0.08767944
0.08724122
0.06491577
0.05066101
0.01657715
0.03241455
0.03822204
0.06390137
0.06756165
0.07916382
0.05687805
0.05062377
0.03843018
0.03425781
0.03408630
0.03590637
0.01781677
0.04558777
0.07720032
0.10268433
0.12008117
0.13341064
0.10886353
0.06453919
0.03038635
0.04217468
0.06186401
0.06752502
0.10101685
0.12837158
0.11578979
0.09730041
0.11671386
0.10618041
0.10166993
0.07131104
0.06100402
0.01890869
0.00687439
-0.01505005
-0.00104492
0.02880981
0.01871582
0.05643188
0.08202027
0.10747985
0.08903259
0.12838745
0.08794556
0.07556580
0.04931823
0.03912170
0.00907654
0.01102051
-0.00694397
-0.02083923
-0.04063537
-0.04839233
-0.01630982
0.01760193
0.05333374
0.05903747
0.05874207
0.04849853
0.04626586
0.00822510
0.01614380
0.02999268
-0.00398682
-0.02585693
0.01805298
0.05378234
0.05948364
0.08505677
0.12642151
0.09792908
0.07952942
0.09306213
0.09060669
0.08020385
0.06985291
0.05955383
0.06124572
0.06093933
0.04272461
0.04450012
0.02835815
-0.00561401
-0.03145569
-0.00542847
0.02245911
0.04025635
0.05199523
0.06168518
0.05938659
0.07102966
0.04679443
0.04457031
0.04235717
0.03020630
-0.02367493
0.01425354
0.04005249
0.05577209
0.04156250
0.07518494
0.07480895
0.06846497
0.05817260
0.03400146
0.00796204
-0.01993835
-0.03774902
-0.971
-0.02147217
-0.01738464
-0.01729736
0.01462891
0.03644592
0.05019348
0.05790283
0.06358337
0.03142517
-0.00256103
-0.02642883
-0.04221680
-0.00220520
0.00178589
-0.00021301
0.00177856
0.00177002
-0.03803894
-0.05177856
-0.00973022
-0.01565124
0.01427673
0.02614563
0.07178467
0.07341614
0.10090942
0.11035523
0.10582337
0.07743408
0.05515747
0.03896118
0.00294678
-0.00303833
0.00493774
-0.00503662
0.01886841
0.02076416
0.00872009
-0.00923340
-0.00321777
-0.02111145
-0.01901611
0.02485962
0.07050538
0.05224243
0.08183166
0.11525207
0.10273621
0.06839233
0.07999085
0.06367065
0.04146301
0.03528503
0.02714905
0.02303284
-0.00494202
-0.01088684
-0.03869262
-0.05640930
-0.06607728
-0.02793640
0.01001282
0.04379272
0.08337403
0.11081726
0.09036316
0.04414062
0.01406982
-0.01983032
-0.05157104
-0.03141296
-0.01334595
-0.00332947
-0.00530273
0.01263367
0.00461060
-0.02128235
-0.00127625
0.01862976
0.01455627
-0.01138611
0.00658020
-0.02529236
0.00070496
-0.00924805
-0.01318237
0.00877380
0.00673950
-0.03508423
-0.03291870
-0.03872375
-0.02261047
0.00337219
0.03121582
0.04896912
0.06663391
0.03446045
0.03229797
0.02218628
0.00018616
-0.00976440
-0.03757629
-0.01350830
0.01839905
0.06407654
0.09559632
0.14685851
0.11826477
0.07588379
0.05162415
0.02151611
0.02538880
0.02725220
0.01318603
0.03700012
0.02686524
0.00683105
0.02669678
0.04646301
0.01638062
0.02425842
-0.00770325
-0.05542420
-0.07106751
-0.08265197
-0.08621888
-0.04598754
-0.00794739
0.02393249
0.05167236
0.07529419
0.04506774
0.02494202
-0.00105347
-0.00701843
-0.01295288
0.00303162
0.00301636
0.03086121
0.03269714
0.03651367
0.01643127
-0.00156128
-0.03737305
-0.01728638
-0.00128052
0.02459595
0.06029235
0.07790100
0.08149169
0.07710389
0.07671814
0.05842468
0.06808228
0.04585205
0.03766296
0.03747436
0.04922729
0.04102111
0.01295654
-0.00899841
-0.03283325
-0.05057922
-0.06226685
-0.05399536
-0.05372558
-0.05743652
-0.02530945
0.00466736
0.03449401
0.06815063
0.11556946
0.10902161
0.11643676
0.10391418
0.09145508
0.06313720
0.06879211
0.04456787
0.05230529
0.04806396
0.05578369
8486
0.03729736
0.04109069
0.01700562
0.03085022
-0.01706360
-0.02095764
-0.05468323
-0.00864014
-0.04441650
-0.00638428
0.03742736
0.07903015
0.08062439
0.06828186
0.07789002
0.04566040
0.00961121
-0.02625671
0.02362488
-0.02027344
0.01763855
0.05536072
0.08294373
0.08451905
0.09006653
0.07767640
0.07131836
0.07892212
0.05862731
0.09216431
0.08971314
0.08329468
0.08486756
0.05857360
0.04833069
0.04609863
0.04188843
0.00983887
0.03764953
0.02154175
-0.00045593
-0.00841309
0.01550842
-0.02038879
-0.02426697
-0.01817505
-0.02803406
-0.02988403
0.00210571
-0.00785461
-0.01577576
-0.02166687
-0.00961853
-0.02947021
-0.02534363
-0.02720642
-0.03105103
-0.03288574
-0.04068115
0.01126221
0.04702514
0.07265991
0.07030640
0.09383422
0.06550476
0.05920776
0.03105164
0.03089661
0.05860229
0.06228881
0.06197753
0.08554749
0.07317993
0.05490417
0.06059937
0.05830688
0.07592529
0.03972534
0.04151672
0.03334960
0.02323303
0.01316711
0.03101074
0.02886597
0.02076172
0.01667847
-0.01922546
-0.03703918
-0.07267395
-0.09818116
-0.11161987
-0.06330201
-0.06298523
-0.02486084
-0.01876709
-0.02464355
-0.07029053
-0.04008911
-0.04585876
-0.00781982
0.02405945
0.05776978
0.04753113
0.02739319
-0.00458374
-0.01053040
0.00146179
-0.01247498
0.02141724
0.04917053
0.06484436
0.01477051
0.00673645
0.00272278
-0.03709045
-0.03491516
0.01699951
0.05671448
0.05643128
0.08599915
0.08556946
0.08315125
0.07477600
0.04256225
0.03040894
0.01632751
-0.00564453
0.00433350
0.03814148
0.07178101
0.09132203
0.07295593
0.03677124
-0.00719238
-0.03700623
-0.08060180
-0.04437866
0.00161316
0.05135498
0.07895813
0.07856384
0.03638123
-0.00957031
-0.05927246
-0.10872620
-0.11614258
-0.11755188
-0.12094483
-0.10242981
-0.06410766
-0.02000793
-0.00597717
0.01594238
0.03178222
0.00774353
-0.00622498
-0.00221375
-0.00021362
-0.00618225
0.02767883
0.03351013
0.05324279
0.06690674
0.03871216
0.04647888
0.05818604
0.06983520
0.02968567
0.03351745
0.02936951
-0.01853760
-0.06620483
-0.04796386
-0.03777405
-0.05151550
-0.00150818
0.04625976
0.02811829
0.05782775
0.02370850
-0.01421997
-0.04200927
01791931
-0.05364990
-0.01159241
0.02826599
0.01021484
0.02608398
0.02197327
0.02584351
-0.02204651
0.01786377
0.02175476
0.04353638
0.02142883
0.02331177
0.03513550
0.02898926
0.02486450
0.02274963
0.04054565
-0.00542664
-0.04320984
-0.05294373
-0.07655823
-0.09010559
-0.09562500
-0.07126709
-0.06096069
-0.02682617
-0.01276184
-0.00473816
-0.00272400
0.02514954
0.04691406
0.07055908
0.06821595
0.09374511
0.05148620
-0.00051147
-0.02438843
-0.00635681
-0.01030518
-0.01821411
-0.02011291
-0.03394165
-0.01387207
-0.05758300
-0.03739502
-0.01730835
-0.00528198
-0.05500549
-0.04080078
-0.04656677
-0.04235413
-0.05607299
-0.03788269
-0.05560303
-0.05930542
-0.07293824
-0.07854371
-0.09606080
-0.07767028
-0.06136169
-0.07100463
-0.04677001
-0.00076599
0.02908752
0.05282166
0.06648743
0.07013488
0.04988403
0.03968445
0.00764587
0.02551758
0.01145935
0.00742249
-0.02843506
-0.03824280
-0.05397155
-0.04972167
-0.05345337
-0.05517578
-0.06286011
-0.05458557
-0.06625244
-0.07786071
-0.06752137
-0.06519410
-0.09272828
-0.08828491
-0.06396362
-0.03180359
-0.00577393
0.02410522
0.03194458
0.02183472
-0.01807434
-0.01201416
0.00396667
-0.01595276
0.02193665
0.04570679
0.03552856
-0.01041931
0.00157288
-0.05216491
-0.07777405
-0.10126526
-0.10075927
-0.10622558
-0.05992493
-0.00390503
-0.00189636
0.00806274
0.01200317
-0.01989685
-0.06954773
-0.05526977
-0.03509338
-0.01501770
0.00495728
0.03478210
0.06644836
0.07606568
0.09956542
0.10304809
0.07069275
0.02456970
-0.01137329
-0.01529602
-0.01322998
0.02464661
0.06034302
0.09785157
0.10134277
0.10083618
0.10431152
0.10976014
0.11518127
0.09470581
0.08428222
0.07391113
0.05364136
0.02352295
-0.01042419
-0.04221191
-0.03205078
-0.04781066
-0.05752136
-0.05723388
-0.04699768
-0.09054261
-0.09009033
-0.07172974
-0.03555114
-0.01945313
-0.00741577
0.00655090
0.02840820
0.00438538
-0.01155640
-0.01945862
0.01446777
-0.01943421
0.00454224
0.03038940
0.07401733
0.01792786
0.00589783
-0.02000122
-0.03582153
-0.08340271
-0.07104554
-0.05477051
-0.03857605
-0.03241333
-0.02429138
-0.02615906
-0.02602783
-0.02788758
-0.03570801
-0.02557922
0.00041870
-0.01351379
-0.02538574
-0.03520935
-0.03702331
-0.03484863
-0.00084473
-0.00880066
-0.00079651
0.02706787
0.03091309
0.05264892
0.09417542
0.09370423
0.04945556
0.02731812
-0.02057862
-0.05629577
-0.04805420
-0.02393433
-0.01585388
-0.00184509
0.03995422
0.06562438
0.05136718
0.04116028
0.03498413
0.01291992
-0.02495544
-0.01090088
-0.02278625
-0.03063232
-0.03246887
-0.00046631
-0.02434448
-0.01825256
-0.02811096
-0.04389099
-0.06357116
-0.02942322
0.00057434
0.00256165
0.00851868
-0.00147400
0.01246338
0.00643066
0.00639832
0.04019653
0.02805542
-0.02183472
-0.05157532
-0.04733704
-0.09287048
-0.06653565
-0.03834350
-0.03019165
-0.02009033
0.02180054
-0.00616821
-0.02603760
-0.02988770
-0.00784851
-0.02173950
0.01617981
0.05191894
0.04369934
0.00368103
-0.00230774
0.00168457
-0.04011352
-0.02598267
0.00200745
-0.02586243
-0.05956359
-0.03140625
-0.02925903
-0.02314209
0.00284363
0.03864929
0.04840637
0.07005433
0.03587463
0.01778442
-0.02807434
-0.05579345
-0.06944519
-0.05118774
-0.03302185
-0.01693726
-0.01287231
-0.03270813
-0.02856506
-0.01847229
-0.02036987
-0.01031799
0.01361389
0.03543579
0.02331848
0.04310181
0.02895630
0.04075134
0.03059754
0.05233459
0.07197266
0.05967224
0.02355408
0.02741638
-0.01849060
-0.07013855
-0.05585754
-0.05358825
-0.06327027
-0.03111450
0.00088135
0.03271728
0.07235351
0.09189147
0.07153198
0.05525451
0.01119812
-0.03860778
-0.02846497
-0.04026245
0.00172913
0.00371033
0.01563171
-0.02822693
-0.01216614
-0.07180542
-0.06547608
-0.05718872
-0.04695312
-0.05268860
-0.01262512
0.01131775
0.00728149
0.00525513
0.01915832
0.00314331
-0.01279175
-0.00675842
-0.01269409
-0.00467102
0.01724243
0.04103576
0.06471130
0.05443787
0.03028503
-0.01364563
-0.04740783
-0.08100098
-0.03482544
-0.00281128
0.04098206
0.07659729
0.06825379
0.01617310
-0.01972778
-0.04151916
-0.08111145
-0.03095581
0.01496887
0.06066345
0.09419068
0.10963928
0.07327148
0.05698486
0.03281982
0.00877563
0.02465210
0.06034851
0.07994690
0.06959717
0.05730895
0.05503234
0.03087707
0.03072266
0.06439881
0.04218750
0.02008606
0.03391540
-0.01401367
-0.06369385
-0.04546570
-0.03727844
-0.05898193
-0.04077759
-0.00674316
0.02115051
0.03497436
0.05270996
0.05841613
0.05414367
0.01606323
0.01200317
-0.01989685
-0.00586792
-0.00185791
0.03994140
0.00989136
0.00785217
-0.02402710
-0.03982666
-0.06350831
-0.02936035
0.00262695
0.03047363
0.05619080
0.03600952
0.02786987
0.01778076
0.01172241
0.00171387
0.03951477
0.04329712
0.05303101
0.05674622
0.06840271
0.07602051
0.06171020
0.05543212
0.06112487
0.05882935
0.03863525
0.06033142
0.05206970
0.06573975
0.06143066
0.07505371
0.07865784
0.06433533
0.01625366
-0.00770752
-0.03552856
-0.04928100
-0.00525452
0.03855164
0.06422913
0.08977783
0.06345948
0.02135193
-0.01457458
-0.04037170
-0.05011963
-0.02200928
-0.03383850
-0.04759949
-0.06328125
-0.09082519
-0.10032104
-0.06399902
-0.01193848
0.04185059
0.07149170
0.05521484
0.06488892
0.06257447
0.05430176
0.06994995
0.11735962
0.07498291
0.04873718
0.03854309
0.03238037
0.02425842
0.07189697
0.09541687
0.06906983
0.02693420
-0.00305054
-0.03686462
-0.04663086
-0.01455811
0.01536499
0.05110900
0.06080383
0.02467957
-0.01723328
-0.00918762
-0.05690186
-0.07651733
-0.01842468
-0.00838257
-0.04416137
-0.03796997
-0.03778015
-0.08933106
-0.06699402
-0.02287964
-0.02475464
-0.02662110
-0.02449768
-0.05223571
-0.09376403
-0.07936584
-0.07100892
-0.04080383
-0.00080017
0.01114380
0.00909790
0.01303284
0.02092774
-0.02096741
0.00898743
-0.00896728
0.00102783
-0.02086731
-0.02275207
-0.01865845
-0.00861511
-0.03245117
-0.05019958
-0.03402832
-0.05972839
-0.02360962
0.03222778
0.02609680
0.05780639
0.03363708
-0.01031128
-0.05602966
-0.04181945
-0.06549072
-0.03332336
-0.00927734
0.00270935
0.03055603
0.00851379
-0.01341919
-0.02131165
-0.04508545
-0.07471008
-0.05841674
-0.03623413
-0.02013245
0.00384766
0.03765808
0.04940979
0.04916259
0.03498657
0.03481201
0.00677795
0.01470398
0.01662048
0.04638793
0.06406556
0.04583557
0.04958618
0.06326843
0.02315247
0.03099670
0.03681213
-0.00118286
-0.03500671
-0.03881165
-0.09035766
-0.08194519
-0.05964599
-0.01755738
0.02631042
0.03214843
0.06979736
0.05750854
0.01145081
-0.03039673
-0.01233398
-0.06401246
-0.07364196
-0.06929382
-0.05103698
-0.04680176
-0.02069702
0.00328613
0.01719971
-0.00079590
0.01313782
0.02103210
0.04082703
0.06251282
0.07812011
0.04190918
0.01781982
-0.00813965
-0.03794861
-0.03775879
-0.02164917
-0.00363098
0.01628723
0.04207520
0.05977478
0.07340576
0.09293824
0.06262330
0.03843018
0.01435791
0.00433594
-0.02752624
-0.01942871
-0.03923156
-0.04102539
-0.06072021
-0.05842651
-0.07604431
-0.05775390
-0.03358459
0.00439331
0.03621093
0.08179992
0.05950073
0.02537354
-0.01256287
-0.01648071
-0.06415772
-0.01607727
0.02977295
0.02365417
-0.02024475
-0.01815308
-0.01607239
-0.06574219
-0.01367371
0.02818481
0.05590393
0.04567443
0.09320556
0.04895935
0.00891418
-0.01899048
-0.04675537
-0.05050170
-0.02437866
-0.00037720
0.05335510
0.04313842
0.00312317
-0.02077270
-0.02066895
-0.04046569
-0.00444336
0.04134827
0.06104125
0.08063599
0.09217285
0.06186218
0.05359314
0.07123475
0.05296875
0.05668334
0.08028015
0.06594849
0.03775879
0.01169983
-0.03213867
-0.05386840
-0.05160889
-0.03941101
0.00655579
0.04433350
0.08192199
0.09942199
0.06907471
0.02494934
0.00293518
-0.02294983
-0.02681457
0.02306946
0.01499390
0.00496887
0.01489441
0.00685974
-0.00710388
-0.00507935
-0.01301392
-0.03085876
-0.06055481
-0.08015197
-0.05786071
-0.03966187
-0.03747314
-0.03927612
-0.04306030
-0.03687438
-0.01281067
-0.02866638
0.00331665
0.03116028
0.03896423
0.03478943
0.06247558
0.07609253
0.08566224
0.04941406
0.01931702
0.01922058
-0.00873535
-0.02262207
0.01530090
0.01522461
-0.01072082
-0.02857727
-0.05828430
-0.08187316
-0.05758361
-0.02147583
0.01445190
0.01636963
0.05011780
0.02001709
0.01195679
0.00990723
0.04766723
0.04344910
0.08701172
0.06269654
0.02656250
-0.00342041
-0.03126342
-0.05100708
-0.01294189
0.03090271
0.01681763
0.03464355
0.04640991
0.02428772
0.00824646
0.03407531
0.03390503
0.02179626
0.02964661
0.01158874
0.00556030
0.00951233
0.02538452
0.02326782
0.04902222
0.06071716
0.07434326
0.07397156
0.09151124
0.09702393
0.06071838
0.01265503
-0.03516846
-0.07877259
-0.12414855
-0.10760803
-0.08915954
-0.05090393
-0.00089966
0.01701477
0.02488953
0.01083557
-0.00513916
-0.02899292
-0.01292786
-0.01684387
0.00712097
0.03096558
0.05071044
0.05642639
0.04022460
0.02410278
0.00209167
0.00407104
0.00405090
0.00801086
0.02588074
0.03172119
0.00370239
-0.00228577
0.03752563
0.04529785
0.06497132
0.09449645
0.08407348
0.07768311
0.06336426
0.04513793
0.00511230
0.01105652
-0.01287842
-0.01281372
-0.03663024
-0.04241638
-0.01235412
0.01556702
0.03737915
0.05112182
0.06280640
0.03264221
0.00262939
-0.03718383
-0.04495788
-0.05866333
-0.08822022
-0.09175903
-0.08333984
-0.06103332
-0.04082763
-0.00082336
0.03898071
0.07261536
0.07424194
0.10173096
0.10520265
0.10467652
0.09221252
0.09374146
0.06342286
0.05116577
0.02304993
0.00701477
0.01891968
0.04668518
0.01461243
-0.00735107
-0.01328491
-0.00724853
-0.05895264
-0.00492737
-0.00092346
0.00107117
-0.01883423
0.02304993
0.00900452
0.00497986
-0.01693543
-0.00292114
0.00505371
-0.02084167
-0.00680725
0.02307678
0.00505127
0.00701599
0.04280151
0.03462768
0.01853394
0.01048157
-0.00748108
-0.01938354
0.02250305
0.05224060
0.02809875
0.04586792
0.06354858
0.06323060
0.03704407
0.04879882
0.02268494
-0.02518921
-0.06685303
-0.07049927
-0.05820679
-0.05791564
-0.05563598
-0.01555786
-0.01945984
0.00451782
-0.01739502
0.00259155
-0.03324219
-0.03904602
-0.07865113
-0.06830811
-0.07592651
-0.05166748
-0.03946899
-0.02932129
-0.01922485
-0.02708862
-0.03491333
-0.04468872
-0.04844543
-0.06014343
-0.06183228
-0.07744384
-0.07705688
-0.06672120
-0.05842773
-0.04022460
-0.00818420
-0.00814331
-0.01208252
-0.01998169
-0.02983154
-0.06948243
-0.05719543
-0.04695923
-0.00891357
0.02297058
0.02683594
0.06053162
0.07017883
0.06783813
0.01973877
0.01565979
-0.02023804
-0.02610718
-0.04587646
-0.00982666
0.01609253
0.03790222
0.03771301
0.04548400
0.05520630
0.03304016
0.00501526
0.01096008
0.02881592
-0.01709839
-0.00905334
-0.00104736
0.00094727
-0.00303711
-0.00700195
-0.02089661
-0.03472290
-0.07036926
-0.09787780
-0.04763855
