sample_index,ecg_value
0,603
1,619
2,564
3,405
4,236
5,107
6,25
7,0
8,0
9,0
10,0
11,0
12,0
13,0
14,0
15,0
16,0
17,0
18,0
19,0
20,0
21,0
22,0
23,0
24,0
25,0
26,0
27,0
28,0
29,0
30,0
31,0
32,0
33,0
34,0
35,0
36,0
37,46
38,191
39,365
40,515
41,620
42,596
43,616
44,595
45,607
46,620
47,604
48,613
49,593
50,605
51,617
52,593
53,605
54,613
55,593
56,596
57,611
58,617
59,599
60,608
61,620
62,594
63,599
64,611
65,594
66,600
67,612
68,617
69,598
70,600
71,617
72,624
73,602
74,610
75,603
76,597
77,601
78,608
79,617
80,599
81,603
82,610
83,623
84,617
85,601
86,607
87,619
88,593
89,605
90,610
91,619
92,599
93,608
94,617
95,596
96,600
97,610
98,610
99,593
100,599
101,608
102,613
103,593
104,553
105,392
106,227
107,101
108,21
109,0
110,0
111,0
112,0
113,0
114,0
115,0
116,0
117,0
118,0
119,0
120,0
121,0
122,0
123,0
124,0
125,0
126,0
127,0
128,0
129,0
130,0
131,0
132,0
133,0
134,0
135,0
136,0
137,0
138,0
139,52
140,204
141,382
142,531
143,591
144,605
145,594
146,605
147,619
148,603
149,619
150,598
151,613
152,623
153,602
154,604
155,593
156,598
157,611
158,619
159,599
160,607
161,614
162,596
163,606
164,616
165,597
166,602
167,613
168,620
169,598
170,605
171,617
172,596
173,605
174,614
175,597
176,604
177,616
178,594
179,604
180,610
181,594
182,599
183,615
184,621
185,601
186,609
187,593
188,598
189,611
190,608
191,603
192,608
193,618
194,597
195,610
196,616
197,598
198,603
199,619
200,594
201,606
202,615
203,594
204,599
205,611
206,483
207,311
208,162
209,58
210,0
211,0
212,0
213,0
214,0
215,0
216,0
217,0
218,0
219,0
220,0
221,0
222,0
223,0
224,0
225,0
226,0
227,0
228,0
229,0
230,0
231,0
232,0
233,0
234,0
235,0
236,0
237,0
238,0
239,0
240,0
241,113
242,289
243,461
244,586
245,617
246,598
247,614
248,595
249,602
250,615
251,596
252,604
253,618
254,595
255,608
256,611
257,595
258,602
259,610
260,617
261,595
262,603
263,614
264,594
265,605
266,612
267,622
268,596
269,606
270,611
271,599
272,606
273,619
274,599
275,610
276,616
277,620
278,597
279,611
280,620
281,602
282,612
283,622
284,595
285,613
286,621
287,601
288,608
289,618
290,595
291,601
292,616
293,597
294,604
295,616
296,594
297,609
298,611
299,600
300,607
301,621
302,600
303,613
304,605
305,600
306,612
307,593
308,603
309,514
310,344
311,187
312,69
313,3
314,0
315,0
316,0
317,0
318,0
319,0
320,0
321,0
322,0
323,0
324,0
325,0
326,0
327,0
328,0
329,0
330,0
331,0
332,0
333,0
334,0
335,0
336,0
337,0
338,0
339,0
340,0
341,0
342,0
343,0
344,99
345,268
346,441
347,570
348,613
349,602
350,610
351,601
352,611
353,596
354,599
355,620
356,598
357,607
358,623
359,602
360,610
361,619
362,601
363,612
364,615
365,599
366,606
367,619
368,593
369,609
370,616
371,593
372,604
373,616
374,605
375,601
376,616
377,598
378,601
379,615
380,623
381,603
382,606
383,617
384,597
385,611
386,617
387,596
388,602
389,609
390,594
391,605
392,614
393,608
394,597
395,609
396,609
397,594
398,601
399,614
400,617
401,597
402,601
403,606
404,618
405,596
406,600
407,612
408,617
409,597
410,601
411,474
412,299
413,153
414,50
415,0
416,0
417,0
418,0
419,0
420,0
421,0
422,0
423,0
424,0
425,0
426,0
427,0
428,0
429,0
430,0
431,0
432,0
433,0
434,0
435,0
436,0
437,0
438,0
439,0
440,0
441,0
442,0
443,0
444,0
445,0
446,75
447,215
448,356
449,470
450,569
451,611
452,599
453,620
454,599
455,616
456,597
457,613
458,616
459,607
460,617
461,596
462,606
463,621
464,597
465,612
466,621
467,604
468,611
469,594
470,600
471,613
472,622
473,603
474,614
475,596
476,601
477,616
478,594
479,607
480,615
481,599
482,608
483,596
484,594
485,608
486,617
487,596
488,602
489,617
490,594
491,602
492,613
493,595
494,600
495,614
496,624
497,603
498,605
499,620
500,595
501,609
502,617
503,599
504,606
505,610
506,623
507,605
508,612
509,594
510,601
511,611
512,614
513,592
514,452
515,281
516,139
517,43
518,0
519,0
520,0
521,0
522,0
523,0
524,0
525,0
526,0
527,0
528,0
529,0
530,0
531,0
532,0
533,0
534,0
535,0
536,0
537,0
538,0
539,0
540,0
541,0
542,0
543,0
544,0
545,0
546,0
547,0
548,9
549,123
550,302
551,470
552,587
553,611
554,619
555,609
556,601
557,601
558,611
559,596
560,602
561,608
562,615
563,600
564,607
565,619
566,593
567,603
568,604
569,619
570,601
571,603
572,609
573,620
574,603
575,597
576,606
577,616
578,619
579,600
580,602
581,612
582,610
583,593
584,597
585,607
586,613
587,594
588,598
589,603
590,616
591,595
592,595
593,611
594,617
595,595
596,598
597,611
598,620
599,593
600,602
601,614
602,618
603,593
604,603
605,612
606,611
607,595
608,603
609,613
610,612
611,595
612,601
613,605
614,613
615,594
616,599
617,550
618,365
619,203
620,83
621,6
622,0
623,0
624,0
625,0
626,0
627,0
628,0
629,0
630,0
631,0
632,0
633,0
634,0
635,0
636,0
637,0
638,0
639,0
640,0
641,0
642,0
643,0
644,0
645,0
646,0
647,0
648,0
649,0
650,0
651,0
652,60
653,223
654,403
655,548
656,599
657,618
658,599
659,617
660,595
661,609
662,618
663,600
664,607
665,618
666,593
667,601
668,605
669,618
670,593
671,603
672,609
673,621
674,593
675,603
676,605
677,618
678,620
679,601
680,605
681,617
682,593
683,606
684,612
685,596
686,599
687,613
688,621
689,601
690,610
691,599
692,598
693,608
694,612
695,594
696,600
697,609
698,617
699,599
700,602
701,615
702,616
703,603
704,612
705,593
706,597
707,612
708,619
709,603
710,610
711,613
712,600
713,613
714,622
715,603
716,610
717,618
718,598
719,609
720,617
721,481
722,309
723,160
724,55
725,0
726,0
727,0
728,0
729,0
730,0
731,0
732,0
733,0
734,0
735,0
736,0
737,0
738,0
739,0
740,0
741,0
742,0
743,0
744,0
745,0
746,0
747,0
748,0
749,0
750,0
751,0
752,0
753,0
754,0
755,0
756,86
757,252
758,428
759,574
760,601
761,609
762,594
763,605
764,618
765,603
766,610
767,594
768,598
769,615
770,604
771,603
772,610
773,620
774,595
775,600
776,613
777,593
778,599
779,610
780,616
781,596
782,596
783,613
784,619
785,597
786,603
787,612
788,617
789,623
790,599
791,607
792,611
793,600
794,596
795,604
796,604
797,619
798,593
799,603
800,608
801,617
802,594
803,597
804,606
805,619
806,593
807,602
808,610
809,603
810,620
811,603
812,608
813,618
814,593
815,606
816,611
817,617
818,598
819,602
820,609
821,618
822,612
823,601
824,601
825,614
826,615
827,490
828,320
829,166
830,59
831,0
832,0
833,0
834,0
835,0
836,0
837,0
838,0
839,0
840,0
841,0
842,0
843,0
844,0
845,0
846,0
847,0
848,0
849,0
850,0
851,0
852,0
853,0
854,0
855,0
856,0
857,0
858,0
859,0
860,0
861,0
862,84
863,253
864,424
865,558
866,602
867,606
868,597
869,609
870,621
871,604
872,613
873,621
874,602
875,609
876,615
877,595
878,601
879,614
880,613
881,597
882,604
883,614
884,619
885,598
886,605
887,612
888,593
889,604
890,609
891,602
892,599
893,611
894,619
895,602
896,607
897,617
898,622
899,600
900,606
901,617
902,593
903,601
904,608
905,618
906,596
907,602
908,606
909,620
910,594
911,605
912,611
913,620
914,593
915,602
916,607
917,617
918,623
919,601
920,608
921,618
922,593
923,601
924,605
925,618
926,605
927,600
928,603
929,610
930,613
931,551
932,390
933,226
934,101
935,17
936,0
937,0
938,0
939,0
940,0
941,0
942,0
943,0
944,0
945,0
946,0
947,0
948,0
949,0
950,0
951,0
952,0
953,0
954,0
955,0
956,0
957,0
958,0
959,0
960,0
961,0
962,0
963,0
964,0
965,0
966,36
967,192
968,384
969,545
970,613
971,599
972,604
973,617
974,593
975,599
976,612
977,596
978,595
979,608
980,612
981,621
982,618
983,601
984,604
985,614
986,621
987,601
988,609
989,612
990,623
991,601
992,606
993,617
994,621
995,599
996,598
997,613
998,616
999,593
1000,600
1001,610
1002,618
1003,620
1004,598
1005,607
1006,611
1007,620
1008,595
1009,606
1010,606
1011,620
1012,594
1013,601
1014,604
1015,612
1016,621
1017,596
1018,605
1019,616
1020,621
1021,598
1022,602
1023,611
1024,613
1025,596
1026,601
1027,611
1028,614
1029,622
1030,596
1031,598
1032,607
1033,619
1034,592
1035,548
1036,378
1037,214
1038,89
1039,10
1040,0
1041,0
1042,0
1043,0
1044,0
1045,0
1046,0
1047,0
1048,0
1049,0
1050,0
1051,0
1052,0
1053,0
1054,0
1055,0
1056,0
1057,0
1058,0
1059,0
1060,0
1061,0
1062,0
1063,0
1064,0
1065,0
1066,0
1067,0
1068,0
1069,0
1070,33
1071,178
1072,359
1073,526
1074,601
1075,591
1076,599
1077,592
1078,602
1079,619
1080,595
1081,613
1082,624
1083,598
1084,611
1085,598
1086,597
1087,602
1088,613
1089,595
1090,602
1091,608
1092,614
1093,594
1094,594
1095,605
1096,611
1097,619
1098,597
1099,608
1100,614
1101,621
1102,599
1103,608
1104,609
1105,614
1106,600
1107,611
1108,609
1109,596
1110,602
1111,614
1112,620
1113,601
1114,609
1115,614
1116,606
1117,603
1118,610
1119,593
1120,600
1121,612
1122,617
1123,603
1124,607
1125,617
1126,594
1127,606
1128,613
1129,617
1130,594
1131,602
1132,608
1133,619
1134,624
1135,597
1136,605
1137,612
1138,617
1139,591
1140,456
1141,284
1142,142
1143,44
1144,0
1145,0
1146,0
1147,0
1148,0
1149,0
1150,0
1151,0
1152,0
1153,0
1154,0
1155,0
1156,0
1157,0
1158,0
1159,0
1160,0
1161,0
1162,0
1163,0
1164,0
1165,0
1166,0
1167,0
1168,0
1169,0
1170,0
1171,0
1172,0
1173,0
1174,0
1175,106
1176,283
1177,459
1178,589
1179,597
1180,606
1181,593
1182,601
1183,617
1184,596
1185,608
1186,614
1187,595
1188,604
1189,613
1190,624
1191,605
1192,612
1193,595
1194,601
1195,611
1196,619
1197,599
1198,605
1199,617
1200,594
1201,606
1202,611
1203,621
1204,594
1205,603
1206,609
1207,620
1208,595
1209,605
1210,606
1211,596
1212,598
1213,611
1214,619
1215,595
1216,601
1217,607
1218,618
1219,596
1220,599
1221,610
1222,615
1223,597
1224,595
1225,609
1226,614
1227,593
1228,599
1229,612
1230,619
1231,594
1232,603
1233,612
1234,616
1235,594
1236,598
1237,608
1238,607
1239,619
1240,616
1241,600
1242,604
1243,615
1244,592
1245,511
1246,341
1247,185
1248,71
1249,0
1250,0
1251,0
1252,0
1253,0
1254,0
1255,0
1256,0
1257,0
1258,0
1259,0
1260,0
1261,0
1262,0
1263,0
1264,0
1265,0
1266,0
1267,0
1268,0
1269,0
1270,0
1271,0
1272,0
1273,0
1274,0
1275,0
1276,0
1277,0
1278,0
1279,0
1280,50
1281,207
1282,391
1283,549
1284,600
1285,617
1286,599
1287,608
1288,594
1289,608
1290,618
1291,601
1292,607
1293,622
1294,593
1295,609
1296,618
1297,597
1298,602
1299,612
1300,619
1301,594
1302,605
1303,616
1304,620
1305,600
1306,603
1307,611
1308,613
1309,597
1310,604
1311,616
1312,621
1313,600
1314,606
1315,613
1316,597
1317,603
1318,606
1319,594
1320,597
1321,607
1322,608
1323,594
1324,603
1325,609
1326,619
1327,598
1328,606
1329,611
1330,622
1331,597
1332,596
1333,610
1334,615
1335,596
1336,600
1337,615
1338,617
1339,593
1340,602
1341,611
1342,617
1343,621
1344,602
1345,614
1346,616
1347,594
1348,597
1349,605
1350,602
1351,479
1352,307
1353,159
1354,50
1355,0
1356,0
1357,0
1358,0
1359,0
1360,0
1361,0
1362,0
1363,0
1364,0
1365,0
1366,0
1367,0
1368,0
1369,0
1370,0
1371,0
1372,0
1373,0
1374,0
1375,0
1376,0
1377,0
1378,0
1379,0
1380,0
1381,0
1382,0
1383,0
1384,0
1385,0
1386,82
1387,249
1388,429
1389,564
1390,602
1391,594
1392,601
1393,617
1394,595
1395,609
1396,616
1397,600
1398,608
1399,619
1400,595
1401,601
1402,608
1403,619
1404,597
1405,603
1406,609
1407,621
1408,596
1409,608
1410,613
1411,593
1412,600
1413,610
1414,617
1415,597
1416,603
1417,617
1418,623
1419,601
1420,609
1421,621
1422,603
1423,605
1424,610
1425,617
1426,597
1427,608
1428,616
1429,597
1430,605
1431,615
1432,621
1433,598
1434,605
1435,617
1436,605
1437,601
1438,608
1439,619
1440,595
1441,605
1442,613
1443,616
1444,597
1445,610
1446,616
1447,596
1448,601
1449,612
1450,617
1451,599
1452,603
1453,620
1454,606
1455,604
1456,586
1457,427
1458,258
1459,122
1460,29
1461,0
1462,0
1463,0
1464,0
1465,0
1466,0
1467,0
1468,0
1469,0
1470,0
1471,0
1472,0
1473,0
1474,0
1475,0
1476,0
1477,0
1478,0
1479,0
1480,0
1481,0
1482,0
1483,0
1484,0
1485,0
1486,0
1487,0
1488,0
1489,0
1490,0
1491,0
1492,113
1493,283
1494,449
1495,559
1496,618
1497,601
1498,588
1499,585
1500,593
1501,595
1502,591
1503,608
1504,619
1505,602
1506,611
1507,595
1508,598
1509,613
1510,618
1511,599
1512,605
1513,616
1514,593
1515,598
1516,610
1517,620
1518,595
1519,607
1520,614
1521,594
1522,596
1523,614
1524,617
1525,595
1526,600
1527,615
1528,624
1529,597
1530,608
1531,617
1532,605
1533,602
1534,607
1535,616
1536,617
1537,604
1538,612
1539,623
1540,598
1541,609
1542,617
1543,613
1544,599
1545,609
1546,616
1547,597
1548,605
1549,617
1550,618
1551,603
1552,610
1553,619
1554,595
1555,606
1556,610
1557,615
1558,594
1559,606
1560,609
1561,594
1562,598
1563,607
1564,606
1565,619
1566,596
1567,603
1568,612
1569,623
1570,596
1571,602
1572,612
1573,620
1574,622
1575,604
1576,608
1577,621
1578,620
1579,604
1580,606
1581,610
1582,620
1583,599
1584,602
1585,606
1586,617
1587,595
1588,594
1589,606
1590,611
1591,594
1592,596
1593,610
1594,619
1595,598
1596,604
1597,615
1598,623
1599,597
1600,606
1601,619
1602,595
1603,607
1604,616
1605,598
1606,599
1607,610
1608,616
1609,596
1610,601
1611,614
1612,619
1613,594
1614,603
1615,616
1616,623
1617,603
1618,609
1619,606
1620,598
1621,607
1622,565
1623,383
1624,188
1625,28
1626,0
1627,0
1628,0
1629,0
1630,0
1631,0
1632,0
1633,0
1634,0
1635,0
1636,0
1637,0
1638,0
1639,0
1640,0
1641,0
1642,0
1643,0
1644,0
1645,0
1646,0
1647,0
1648,0
1649,0
1650,0
1651,0
1652,0
1653,0
1654,0
1655,0
1656,0
1657,0
1658,0
1659,0
1660,0
1661,11
1662,163
1663,371
1664,579
1665,605
1666,614
1667,598
1668,607
1669,619
1670,594
1671,605
1672,615
1673,597
1674,603
1675,614
1676,619
1677,599
1678,603
1679,613
1680,617
1681,595
1682,600
1683,608
1684,614
1685,594
1686,600
1687,608
1688,614
1689,594
1690,597
1691,606
1692,609
1693,620
1694,621
1695,602
1696,606
1697,614
1698,620
1699,599
1700,603
1701,606
1702,619
1703,598
1704,604
1705,614
1706,621
1707,602
1708,604
1709,620
1710,597
1711,604
1712,606
1713,617
1714,596
1715,597
1716,607
1717,618
1718,623
1719,602
1720,610
1721,621
1722,594
1723,609
1724,612
1725,622
1726,593
1727,604
1728,609
1729,616
1730,594
1731,602
1732,607
1733,479
1734,279
1735,98
1736,0
1737,0
1738,0
1739,0
1740,0
1741,0
1742,0
1743,0
1744,0
1745,0
1746,0
1747,0
1748,0
1749,0
1750,0
1751,0
1752,0
1753,0
1754,0
1755,0
1756,0
1757,0
1758,0
1759,0
1760,0
1761,0
1762,0
1763,0
1764,0
1765,0
1766,0
1767,0
1768,0
1769,0
1770,0
1771,0
1772,74
1773,273
1774,491
1775,610
1776,593
1777,605
1778,610
1779,597
1780,603
1781,615
1782,618
1783,602
1784,607
1785,615
1786,594
1787,606
1788,613
1789,595
1790,602
1791,611
1792,613
1793,596
1794,602
1795,612
1796,620
1797,599
1798,606
1799,616
1800,595
1801,608
1802,608
1803,624
1804,597
1805,606
1806,607
1807,593
1808,598
1809,606
1810,618
1811,597
1812,605
1813,612
1814,602
1815,604
1816,606
1817,594
1818,599
1819,608
1820,611
1821,596
1822,605
1823,609
1824,620
1825,599
1826,604
1827,607
1828,619
1829,597
1830,598
1831,606
1832,613
1833,609
1834,599
1835,608
1836,614
1837,594
1838,598
1839,584
1840,379
1841,176
1842,7
1843,0
1844,0
1845,0
1846,0
1847,0
1848,0
1849,0
1850,0
1851,0
1852,0
1853,0
1854,0
1855,0
1856,0
1857,0
1858,0
1859,0
1860,0
1861,0
1862,0
1863,0
1864,0
1865,0
1866,0
1867,0
1868,0
1869,0
1870,0
1871,0
1872,0
1873,0
1874,0
1875,0
1876,0
1877,0
1878,21
1879,204
1880,439
1881,608
1882,618
1883,600
1884,608
1885,619
1886,595
1887,605
1888,613
1889,593
1890,599
1891,609
1892,614
1893,594
1894,603
1895,612
1896,620
1897,599
1898,606
1899,616
1900,621
1901,599
1902,604
1903,616
1904,623
1905,602
1906,608
1907,620
1908,596
1909,607
1910,614
1911,594
1912,599
1913,610
1914,616
1915,593
1916,598
1917,611
1918,616
1919,595
1920,602
1921,609
1922,616
1923,595
1924,600
1925,611
1926,615
1927,594
1928,598
1929,609
1930,615
1931,594
1932,600
1933,612
1934,614
1935,594
1936,594
1937,609
1938,610
1939,608
1940,599
1941,610
1942,541
1943,349
1944,160
1945,5
1946,0
1947,0
1948,0
1949,0
1950,0
1951,0
1952,0
1953,0
1954,0
1955,0
1956,0
1957,0
1958,0
1959,0
1960,0
1961,0
1962,0
1963,0
1964,0
1965,0
1966,0
1967,0
1968,0
1969,0
1970,0
1971,0
1972,0
1973,0
1974,0
1975,0
1976,0
1977,0
1978,0
1979,0
1980,16
1981,199
1982,451
1983,599
1984,604
1985,610
1986,597
1987,602
1988,608
1989,618
1990,621
1991,600
1992,597
1993,611
1994,617
1995,598
1996,601
1997,611
1998,615
1999,622
2000,604
2001,613
2002,617
2003,600
2004,602
2005,611
2006,612
2007,597
2008,602
2009,612
2010,618
2011,595
2012,597
2013,602
2014,612
2015,593
2016,597
2017,605
2018,609
2019,620
2020,617
2021,601
2022,605
2023,614
2024,614
2025,594
2026,599
2027,600
2028,609
2029,620
2030,593
2031,603
2032,609
2033,620
2034,618
2035,533
2036,328
2037,138
2038,0
2039,0
2040,0
2041,0
2042,0
2043,0
2044,0
2045,0
2046,0
2047,0
2048,0
2049,0
2050,0
2051,0
2052,0
2053,0
2054,0
2055,0
2056,0
2057,0
2058,0
2059,0
2060,0
2061,0
2062,0
2063,0
2064,0
2065,0
2066,0
2067,0
2068,0
2069,0
2070,0
2071,0
2072,0
2073,14
2074,199
2075,455
2076,598
2077,615
2078,604
2079,604
2080,613
2081,623
2082,597
2083,603
2084,614
2085,594
2086,600
2087,612
2088,619
2089,601
2090,605
2091,621
2092,594
2093,605
2094,615
2095,595
2096,603
2097,609
2098,607
2099,600
2100,605
2101,620
2102,594
2103,605
2104,612
2105,595
2106,600
2107,613
2108,617
2109,594
2110,600
2111,610
2112,613
2113,595
2114,604
2115,616
2116,595
2117,603
2118,611
2119,594
2120,600
2121,614
2122,619
2123,598
2124,605
2125,615
2126,621
2127,599
2128,588
2129,420
2130,222
2131,58
2132,0
2133,0
2134,0
2135,0
2136,0
2137,0
2138,0
2139,0
2140,0
2141,0
2142,0
2143,0
2144,0
2145,0
2146,0
2147,0
2148,0
2149,0
2150,0
2151,0
2152,0
2153,0
2154,0
2155,0
2156,0
2157,0
2158,0
2159,0
2160,0
2161,0
2162,0
2163,0
2164,0
2165,0
2166,0
2167,120
2168,355
2169,589
2170,615
2171,598
2172,606
2173,617
2174,623
2175,601
2176,609
2177,593
2178,594
2179,612
2180,618
2181,598
2182,604
2183,615
2184,621
2185,596
2186,608
2187,620
2188,593
2189,605
2190,611
2191,593
2192,594
2193,612
2194,618
2195,598
2196,604
2197,614
2198,620
2199,594
2200,605
2201,618
2202,594
2203,606
2204,612
2205,621
2206,619
2207,605
2208,610
2209,608
2210,600
2211,612
2212,622
2213,597
2214,608
2215,619
2216,624
2217,599
2218,607
2219,617
2220,617
2221,601
2222,604
2223,612
2224,617
2225,597
2226,600
2227,604
2228,461
2229,266
2230,91
2231,0
2232,0
2233,0
2234,0
2235,0
2236,0
2237,0
2238,0
2239,0
2240,0
2241,0
2242,0
2243,0
2244,0
2245,0
2246,0
2247,0
2248,0
2249,0
2250,0
2251,0
2252,0
2253,0
2254,0
2255,0
2256,0
2257,0
2258,0
2259,0
2260,0
2261,0
2262,0
2263,0
2264,0
2265,0
2266,102
2267,333
2268,581
2269,597
2270,612
2271,595
2272,605
2273,617
2274,595
2275,610
2276,613
2277,600
2278,608
2279,621
2280,596
2281,610
2282,616
2283,621
2284,598
2285,612
2286,612
2287,599
2288,606
2289,619
2290,619
2291,604
2292,609
2293,615
2294,596
2295,608
2296,617
2297,595
2298,602
2299,613
2300,612
2301,601
2302,607
2303,606
2304,595
2305,613
2306,619
2307,596
2308,611
2309,594
2310,600
2311,607
2312,620
2313,600
2314,602
2315,615
2316,621
2317,602
2318,601
2319,620
2320,596
2321,606
2322,613
2323,593
2324,599
2325,606
2326,507
2327,319
2328,136
2329,0
2330,0
2331,0
2332,0
2333,0
2334,0
2335,0
2336,0
2337,0
2338,0
2339,0
2340,0
2341,0
2342,0
2343,0
2344,0
2345,0
2346,0
2347,0
2348,0
2349,0
2350,0
2351,0
2352,0
2353,0
2354,0
2355,0
2356,0
2357,0
2358,0
2359,0
2360,0
2361,0
2362,0
2363,0
2364,58
2365,268
2366,515
2367,606
2368,619
2369,603
2370,611
2371,594
2372,601
2373,614
2374,606
2375,602
2376,611
2377,621
2378,595
2379,609
2380,614
2381,595
2382,599
2383,610
2384,615
2385,600
2386,597
2387,609
2388,614
2389,623
2390,596
2391,607
2392,616
2393,596
2394,599
2395,610
2396,618
2397,600
2398,607
2399,620
2400,595
2401,607
2402,612
2403,624
2404,596
2405,606
2406,616
2407,596
2408,606
2409,619
2410,596
2411,605
2412,608
2413,620
2414,595
2415,606
2416,611
2417,623
2418,597
2419,606
2420,606
2421,614
2422,598
2423,607
2424,613
2425,517
2426,335
2427,155
2428,16
2429,0
2430,0
2431,0
2432,0
2433,0
2434,0
2435,0
2436,0
2437,0
2438,0
2439,0
2440,0
2441,0
2442,0
2443,0
2444,0
2445,0
2446,0
2447,0
2448,0
2449,0
2450,0
2451,0
2452,0
2453,0
2454,0
2455,0
2456,0
2457,0
2458,0
2459,0
2460,0
2461,0
2462,0
2463,96
2464,307
2465,523
2466,613
2467,596
2468,606
2469,612
2470,598
2471,610
2472,619
2473,602
2474,611
2475,596
2476,598
2477,615
2478,620
2479,602
2480,608
2481,622
2482,594
2483,600
2484,611
2485,621
2486,596
2487,608
2488,614
2489,600
2490,594
2491,611
2492,616
2493,596
2494,602
2495,614
2496,620
2497,598
2498,606
2499,619
2500,597
2501,604
2502,611
2503,622
2504,618
2505,603
2506,608
2507,620
2508,595
2509,607
2510,613
2511,619
2512,598
2513,611
2514,616
2515,594
2516,597
2517,606
2518,609
2519,608
2520,596
2521,607
2522,615
2523,595
2524,604
2525,611
2526,618
2527,604
2528,602
2529,617
2530,621
2531,601
2532,603
2533,620
2534,594
2535,597
2536,607
2537,617
2538,516
2539,335
2540,160
2541,23
2542,0
2543,0
2544,0
2545,0
2546,0
2547,0
2548,0
2549,0
2550,0
2551,0
2552,0
2553,0
2554,0
2555,0
2556,0
2557,0
2558,0
2559,0
2560,0
2561,0
2562,0
2563,0
2564,0
2565,0
2566,0
2567,0
2568,0
2569,0
2570,0
2571,0
2572,0
2573,0
2574,0
2575,1
2576,155
2577,374
2578,576
2579,597
2580,603
2581,612
2582,595
2583,606
2584,613
2585,597
2586,605
2587,618
2588,607
2589,602
2590,606
2591,617
2592,595
2593,602
2594,603
2595,616
2596,621
2597,598
2598,602
2599,612
2600,617
2601,596
2602,599
2603,609
2604,613
2605,594
2606,601
2607,615
2608,619
2609,596
2610,603
2611,611
2612,613
2613,594
2614,595
2615,606
2616,611
2617,621
2618,594
2619,605
2620,611
2621,620
2622,593
2623,602
2624,606
2625,616
2626,620
2627,594
2628,603
2629,615
2630,621
2631,600
2632,606
2633,617
2634,620
2635,600
2636,604
2637,616
2638,619
2639,596
2640,601
2641,609
2642,615
2643,624
2644,594
2645,604
2646,609
2647,617
2648,624
2649,597
2650,601
2651,609
2652,615
2653,593
2654,596
2655,600
2656,479
2657,296
2658,128
2659,3
2660,0
2661,0
2662,0
2663,0
2664,0
2665,0
2666,0
2667,0
2668,0
2669,0
2670,0
2671,0
2672,0
2673,0
2674,0
2675,0
2676,0
2677,0
2678,0
2679,0
2680,0
2681,0
2682,0
2683,0
2684,0
2685,0
2686,0
2687,0
2688,0
2689,0
2690,0
2691,0
2692,0
2693,38
2694,216
2695,437
2696,601
2697,620
2698,601
2699,613
2700,593
2701,606
2702,612
2703,599
2704,603
2705,619
2706,595
2707,605
2708,613
2709,593
2710,597
2711,601
2712,610
2713,621
2714,595
2715,607
2716,613
2717,601
2718,595
2719,607
2720,616
2721,595
2722,603
2723,613
2724,619
2725,606
2726,602
2727,610
2728,616
2729,594
2730,602
2731,613
2732,616
2733,599
2734,607
2735,617
2736,624
2737,601
2738,609
2739,614
2740,594
2741,605
2742,612
2743,594
2744,599
2745,612
2746,611
2747,595
2748,603
2749,615
2750,593
2751,602
2752,610
2753,616
2754,596
2755,607
2756,616
2757,598
2758,602
2759,613
2760,615
2761,599
2762,604
2763,616
2764,620
2765,604
2766,614
2767,623
2768,602
2769,612
2770,614
2771,598
2772,605
2773,615
2774,614
2775,600
2776,532
2777,351
2778,176
2779,38
2780,0
2781,0
2782,0
2783,0
2784,0
2785,0
2786,0
2787,0
2788,0
2789,0
2790,0
2791,0
2792,0
2793,0
2794,0
2795,0
2796,0
2797,0
2798,0
2799,0
2800,0
2801,0
2802,0
2803,0
2804,0
2805,0
2806,0
2807,0
2808,0
2809,0
2810,0
2811,0
2812,0
2813,6
2814,158
2815,374
2816,571
2817,596
2818,600
2819,617
2820,596
2821,610
2822,622
2823,599
2824,613
2825,593
2826,598
2827,611
2828,619
2829,599
2830,605
2831,619
2832,595
2833,607
2834,616
2835,595
2836,602
2837,615
2838,621
2839,600
2840,602
2841,611
2842,614
2843,593
2844,597
2845,606
2846,615
2847,595
2848,600
2849,611
2850,614
2851,595
2852,600
2853,612
2854,614
2855,603
2856,595
2857,605
2858,609
2859,617
2860,623
2861,603
2862,610
2863,618
2864,621
2865,599
2866,605
2867,614
2868,617
2869,594
2870,600
2871,611
2872,617
2873,599
2874,602
2875,614
2876,621
2877,597
2878,604
2879,612
2880,617
2881,599
2882,606
2883,618
2884,601
2885,600
2886,604
2887,613
2888,620
2889,600
2890,606
2891,616
2892,617
2893,596
2894,601
2895,608
2896,511
2897,330
2898,154
2899,21
2900,0
2901,0
2902,0
2903,0
2904,0
2905,0
2906,0
2907,0
2908,0
2909,0
2910,0
2911,0
2912,0
2913,0
2914,0
2915,0
2916,0
2917,0
2918,0
2919,0
2920,0
2921,0
2922,0
2923,0
2924,0
2925,0
2926,0
2927,0
2928,0
2929,0
2930,0
2931,0
2932,0
2933,6
2934,156
2935,373
2936,572
2937,594
2938,605
2939,613
2940,596
2941,609
2942,616
2943,599
2944,604
2945,616
2946,619
2947,606
2948,613
2949,593
2950,598
2951,607
2952,613
2953,622
2954,603
2955,615
2956,618
2957,595
2958,601
2959,616
2960,617
2961,599
2962,603
2963,610
2964,612
2965,620
2966,594
2967,596
2968,606
2969,615
2970,619
2971,599
2972,602
2973,611
2974,614
2975,599
2976,603
2977,614
2978,620
2979,599
2980,603
2981,609
2982,618
2983,597
2984,608
2985,620
2986,594
2987,606
2988,609
2989,595
2990,599
2991,609
2992,615
2993,594
2994,603
2995,611
2996,621
2997,601
2998,609
2999,619
3000,594
3001,607
3002,608
3003,603
3004,595
3005,605
3006,613
3007,595
3008,602
3009,607
3010,621
3011,599
3012,597
3013,615
3014,619
3015,596
3016,599
3017,573
3018,409
3019,225
3020,72
3021,0
3022,0
3023,0
3024,0
3025,0
3026,0
3027,0
3028,0
3029,0
3030,0
3031,0
3032,0
3033,0
3034,0
3035,0
3036,0
3037,0
3038,0
3039,0
3040,0
3041,0
3042,0
3043,0
3044,0
3045,0
3046,0
3047,0
3048,0
3049,0
3050,0
3051,0
3052,0
3053,0
3054,0
3055,81
3056,273
3057,496
3058,618
3059,606
3060,617
3061,600
3062,609
3063,596
3064,607
3065,615
3066,600
3067,611
3068,593
3069,609
3070,617
3071,603
3072,614
3073,597
3074,605
3075,618
3076,594
3077,609
3078,619
3079,603
3080,610
3081,615
3082,599
3083,611
3084,617
3085,598
3086,605
3087,617
3088,595
3089,605
3090,614
3091,595
3092,599
3093,611
3094,618
3095,599
3096,606
3097,617
3098,594
3099,603
3100,610
3101,594
3102,603
3103,613
3104,622
3105,600
3106,609
3107,619
3108,596
3109,604
3110,613
3111,596
3112,603
3113,614
3114,624
3115,603
3116,609
3117,593
3118,602
3119,615
3120,595
3121,604
3122,611
3123,601
3124,599
3125,613
3126,619
3127,601
3128,608
3129,620
3130,598
3131,609
3132,618
3133,598
3134,604
3135,614
3136,619
3137,603
3138,609
3139,605
3140,480
3141,297
3142,128
3143,2
3144,0
3145,0
3146,0
3147,0
3148,0
3149,0
3150,0
3151,0
3152,0
3153,0
3154,0
3155,0
3156,0
3157,0
3158,0
3159,0
3160,0
3161,0
3162,0
3163,0
3164,0
3165,0
3166,0
3167,0
3168,0
3169,0
3170,0
3171,0
3172,0
3173,0
3174,0
3175,0
3176,0
3177,19
3178,179
3179,395
3180,594
3181,603
3182,613
3183,597
3184,605
3185,619
3186,597
3187,611
3188,614
3189,602
3190,610
3191,594
3192,598
3193,611
3194,613
3195,618
3196,600
3197,608
3198,613
3199,595
3200,605
3201,614
3202,613
3203,596
3204,603
3205,614
3206,620
3207,600
3208,604
3209,607
3210,617
3211,597
3212,601
3213,610
3214,613
3215,612
3216,594
3217,611
3218,617
3219,599
3220,605
3221,617
3222,598
3223,600
3224,612
3225,593
3226,599
3227,612
3228,616
3229,597
3230,598
3231,612
3232,617
3233,595
3234,601
3235,610
3236,613
3237,615
3238,595
3239,602
3240,608
3241,619
3242,621
3243,602
3244,602
3245,619
3246,624
3247,600
3248,605
3249,614
3250,621
3251,595
3252,607
3253,618
3254,618
3255,602
3256,609
3257,618
3258,619
3259,603
3260,608
3261,613
3262,569
3263,406
3264,223
3265,71
3266,0
3267,0
3268,0
3269,0
3270,0
3271,0
3272,0
3273,0
3274,0
3275,0
3276,0
3277,0
3278,0
3279,0
3280,0
3281,0
3282,0
3283,0
3284,0
3285,0
3286,0
3287,0
3288,0
3289,0
3290,0
3291,0
3292,0
3293,0
3294,0
3295,0
3296,0
3297,0
3298,0
3299,0
3300,73
3301,268
3302,485
3303,604
3304,614
3305,599
3306,607
3307,615
3308,599
3309,614
3310,594
3311,608
3312,623
3313,605
3314,612
3315,593
3316,600
3317,613
3318,607
3319,603
3320,610
3321,620
3322,596
3323,604
3324,612
3325,610
3326,599
3327,609
3328,616
3329,596
3330,604
3331,616
3332,594
3333,606
3334,613
3335,621
3336,597
3337,611
3338,618
3339,598
3340,603
3341,617
3342,608
3343,601
3344,610
3345,594
3346,599
3347,611
3348,618
3349,598
3350,604
3351,613
3352,619
3353,597
3354,603
3355,617
3356,594
3357,605
3358,612
3359,596
3360,599
3361,611
3362,615
3363,595
3364,602
3365,615
3366,611
3367,603
3368,611
3369,598
3370,599
3371,611
3372,617
3373,597
3374,603
3375,615
3376,621
3377,604
3378,610
3379,619
3380,593
3381,604
3382,609
3383,617
3384,593
3385,587
3386,430
3387,247
3388,91
3389,0
3390,0
3391,0
3392,0
3393,0
3394,0
3395,0
3396,0
3397,0
3398,0
3399,0
3400,0
3401,0
3402,0
3403,0
3404,0
3405,0
3406,0
3407,0
3408,0
3409,0
3410,0
3411,0
3412,0
3413,0
3414,0
3415,0
3416,0
3417,0
3418,0
3419,0
3420,0
3421,0
3422,0
3423,66
3424,274
3425,503
3426,603
3427,616
3428,595
3429,610
3430,613
3431,603
3432,591
3433,615
3434,598
3435,592
3436,604
3437,616
3438,603
3439,619
3440,600
3441,613
3442,595
3443,606
3444,610
3445,594
3446,599
3447,611
3448,619
3449,604
3450,612
3451,620
3452,601
3453,614
3454,620
3455,600
3456,606
3457,620
3458,594
3459,612
3460,622
3461,602
3462,610
3463,621
3464,594
3465,605
3466,616
3467,596
3468,603
3469,618
3470,604
3471,603
3472,605
3473,621
3474,597
3475,607
3476,612
3477,616
3478,595
3479,599
3480,607
3481,621
3482,597
3483,608
3484,614
3485,594
3486,596
3487,612
3488,618
3489,598
3490,607
3491,620
3492,595
3493,599
3494,611
3495,593
3496,593
3497,609
3498,616
3499,598
3500,600
3501,615
3502,611
3503,599
3504,609
3505,621
3506,593
3507,597
3508,605
3509,467
3510,282
3511,119
3512,0
3513,0
3514,0
3515,0
3516,0
3517,0
3518,0
3519,0
3520,0
3521,0
3522,0
3523,0
3524,0
3525,0
3526,0
3527,0
3528,0
3529,0
3530,0
3531,0
3532,0
3533,0
3534,0
3535,0
3536,0
3537,0
3538,0
3539,0
3540,0
3541,0
3542,0
3543,0
3544,0
3545,0
3546,26
3547,199
3548,414
3549,607
3550,606
3551,594
3552,604
3553,617
3554,598
3555,613
3556,593
3557,609
3558,610
3559,605
3560,612
3561,595
3562,603
3563,617
3564,606
3565,603
3566,611
3567,622
3568,595
3569,608
3570,619
3571,599
3572,608
3573,620
3574,597
3575,611
3576,617
3577,598
3578,605
3579,615
3580,597
3581,605
3582,611
3583,593
3584,598
3585,610
3586,615
3587,598
3588,607
3589,623
3590,597
3591,609
3592,616
3593,596
3594,600
3595,613
3596,595
3597,604
3598,609
3599,599
3600,597
3601,608
3602,617
3603,599
3604,606
3605,618
3606,595
3607,608
3608,616
3609,595
3610,600
3611,613
3612,619
3613,600
3614,610
3615,593
3616,602
3617,619
3618,593
3619,604
3620,614
3621,596
3622,604
3623,619
3624,593
3625,602
3626,608
3627,621
3628,595
3629,606
3630,607
3631,595
3632,600
3633,601
3634,445
3635,261
3636,104
3637,0
3638,0
3639,0
3640,0
3641,0
3642,0
3643,0
3644,0
3645,0
3646,0
3647,0
3648,0
3649,0
3650,0
3651,0
3652,0
3653,0
3654,0
3655,0
3656,0
3657,0
3658,0
3659,0
3660,0
3661,0
3662,0
3663,0
3664,0
3665,0
3666,0
3667,0
3668,0
3669,0
3670,0
3671,63
3672,262
3673,478
3674,612
3675,600
3676,610
3677,597
3678,605
3679,590
3680,578
3681,562
3682,578
3683,602
3684,613
3685,607
3686,611
3687,600
3688,607
3689,623
3690,596
3691,609
3692,615
3693,593
3694,604
3695,619
3696,595
3697,609
3698,618
3699,599
3700,602
3701,620
3702,599
3703,614
3704,620
3705,604
3706,611
3707,616
3708,599
3709,609
3710,619
3711,599
3712,605
3713,617
3714,620
3715,608
3716,616
3717,598
3718,607
3719,618
3720,595
3721,605
3722,619
3723,598
3724,605
3725,618
3726,595
3727,612
3728,615
3729,603
3730,614
3731,594
3732,603
3733,616
3734,595
3735,605
3736,621
3737,605
3738,609
3739,598
3740,606
3741,618
3742,612
3743,610
3744,620
3745,599
3746,613
3747,596
3748,606
3749,616
3750,597
3751,609
3752,613
3753,597
3754,603
3755,616
3756,618
3757,604
3758,611
3759,617
3760,490
3761,317
3762,147
3763,18
3764,0
3765,0
3766,0
3767,0
3768,0
3769,0
3770,0
3771,0
3772,0
3773,0
3774,0
3775,0
3776,0
3777,0
3778,0
3779,0
3780,0
3781,0
3782,0
3783,0
3784,0
3785,0
3786,0
3787,0
3788,0
3789,0
3790,0
3791,0
3792,0
3793,0
3794,0
3795,0
3796,0
3797,5
3798,156
3799,370
3800,562
3801,600
3802,611
3803,597
3804,609
3805,597
3806,607
3807,597
3808,608
3809,595
3810,605
3811,602
3812,600
3813,616
3814,593
3815,606
3816,616
3817,597
3818,604
3819,620
3820,600
3821,614
3822,612
3823,605
3824,615
3825,597
3826,604
3827,614
3828,623
3829,602
3830,611
3831,594
3832,602
3833,614
3834,623
3835,604
3836,614
3837,596
3838,603
3839,614
3840,596
3841,606
3842,614
3843,594
3844,603
3845,615
3846,594
3847,606
3848,610
3849,594
3850,599
3851,612
3852,620
3853,602
3854,608
3855,620
3856,600
3857,615
3858,594
3859,610
3860,616
3861,597
3862,604
3863,619
3864,594
3865,608
3866,616
3867,599
3868,609
3869,621
3870,600
3871,614
3872,619
3873,609
3874,620
3875,599
3876,607
3877,593
3878,602
3879,610
3880,622
3881,605
3882,613
3883,594
3884,598
3885,590
3886,418
3887,232
3888,80
3889,0
3890,0
3891,0
3892,0
3893,0
3894,0
3895,0
3896,0
3897,0
3898,0
3899,0
3900,0
3901,0
3902,0
3903,0
3904,0
3905,0
3906,0
3907,0
3908,0
3909,0
3910,0
3911,0
3912,0
3913,0
3914,0
3915,0
3916,0
3917,0
3918,0
3919,0
3920,0
3921,0
3922,0
3923,15
3924,165
3925,368
3926,561
3927,601
3928,606
3929,595
3930,607
3931,593
3932,603
3933,615
3934,597
3935,608
3936,593
3937,603
3938,615
3939,601
3940,608
3941,593
3942,599
3943,618
3944,597
3945,611
3946,621
3947,605
3948,612
3949,620
3950,604
3951,616
3952,620
3953,604
3954,614
3955,595
3956,600
3957,618
3958,594
3959,607
3960,616
3961,595
3962,605
3963,611
3964,624
3965,604
3966,613
3967,595
3968,603
3969,618
3970,624
3971,612
3972,624
3973,605
3974,613
3975,596
3976,603
3977,614
3978,598
3979,614
3980,615
3981,602
3982,610
3983,624
3984,609
3985,611
3986,621
3987,598
3988,612
3989,595
3990,603
3991,612
3992,595
3993,609
3994,612
3995,599
3996,611
3997,594
3998,594
3999,611
4000,619
4001,599
4002,611
4003,593
4004,602
4005,609
4006,594
4007,608
4008,613
4009,597
4010,607
4011,618
4012,622
4013,589
4014,421
4015,237
4016,78
4017,0
4018,0
4019,0
4020,0
4021,0
4022,0
4023,0
4024,0
4025,0
4026,0
4027,0
4028,0
4029,0
4030,0
4031,0
4032,0
4033,0
4034,0
4035,0
4036,0
4037,0
4038,0
4039,0
4040,0
4041,0
4042,0
4043,0
4044,0
4045,0
4046,0
4047,0
4048,0
4049,0
4050,0
4051,49
4052,254
4053,488
4054,608
4055,595
4056,603
4057,599
4058,601
4059,617
4060,598
4061,614
4062,593
4063,609
4064,620
4065,604
4066,615
4067,600
4068,609
4069,604
4070,601
4071,617
4072,594
4073,607
4074,614
4075,596
4076,605
4077,618
4078,595
4079,609
4080,621
4081,603
4082,614
4083,597
4084,607
4085,624
4086,599
4087,613
4088,594
4089,607
4090,616
4091,596
4092,600
4093,613
4094,621
4095,603
4096,612
4097,594
4098,601
4099,618
4100,595
4101,607
4102,613
4103,593
4104,602
4105,612
4106,619
4107,600
4108,608
4109,605
4110,601
4111,615
4112,606
4113,603
4114,607
4115,594
4116,599
4117,611
4118,621
4119,603
4120,611
4121,619
4122,601
4123,611
4124,558
4125,386
4126,200
4127,42
4128,0
4129,0
4130,0
4131,0
4132,0
4133,0
4134,0
4135,0
4136,0
4137,0
4138,0
4139,0
4140,0
4141,0
4142,0
4143,0
4144,0
4145,0
4146,0
4147,0
4148,0
4149,0
4150,0
4151,0
4152,0
4153,0
4154,0
4155,0
4156,0
4157,0
4158,0
4159,0
4160,0
4161,0
4162,12
4163,186
4164,422
4165,603
4166,616
4167,602
4168,614
4169,595
4170,598
4171,616
4172,596
4173,609
4174,619
4175,602
4176,611
4177,623
4178,606
4179,620
4180,598
4181,612
4182,622
4183,602
4184,605
4185,594
4186,599
4187,611
4188,618
4189,596
4190,601
4191,609
4192,618
4193,595
4194,603
4195,618
4196,595
4197,605
4198,608
4199,598
4200,603
4201,613
4202,618
4203,599
4204,605
4205,613
4206,594
4207,606
4208,615
4209,595
4210,603
4211,613
4212,617
4213,603
4214,609
4215,622
4216,596
4217,608
4218,616
4219,604
4220,603
4221,613
4222,613
4223,598
4224,605
4225,614
4226,617
4227,602
4228,610
4229,614
4230,597
4231,608
4232,615
4233,594
4234,605
4235,619
4236,599
4237,609
4238,616
4239,596
4240,597
4241,614
4242,621
4243,596
4244,607
4245,621
4246,598
4247,568
4248,378
4249,200
4250,51
4251,0
4252,0
4253,0
4254,0
4255,0
4256,0
4257,0
4258,0
4259,0
4260,0
4261,0
4262,0
4263,0
4264,0
4265,0
4266,0
4267,0
4268,0
4269,0
4270,0
4271,0
4272,0
4273,0
4274,0
4275,0
4276,0
4277,0
4278,0
4279,0
4280,0
4281,0
4282,0
4283,0
4284,0
4285,70
4286,273
4287,498
4288,598
4289,615
4290,596
4291,612
4292,594
4293,610
4294,592
4295,607
4296,593
4297,606
4298,614
4299,599
4300,609
4301,594
4302,605
4303,621
4304,599
4305,616
4306,594
4307,602
4308,610
4309,619
4310,602
4311,616
4312,596
4313,610
4314,622
4315,604
4316,609
4317,620
4318,596
4319,611
4320,620
4321,602
4322,606
4323,620
4324,596
4325,609
4326,617
4327,600
4328,609
4329,620
4330,596
4331,605
4332,611
4333,622
4334,596
4335,606
4336,615
4337,595
4338,599
4339,609
4340,618
4341,596
4342,602
4343,611
4344,618
4345,597
4346,604
4347,614
4348,597
4349,602
4350,606
4351,617
4352,595
4353,608
4354,616
4355,595
4356,596
4357,613
4358,619
4359,597
4360,601
4361,616
4362,609
4363,599
4364,612
4365,594
4366,604
4367,617
4368,594
4369,606
4370,607
4371,594
4372,602
4373,614
4374,621
4375,602
4376,607
4377,611
4378,580
4379,432
4380,247
4381,93
4382,0
4383,0
4384,0
4385,0
4386,0
4387,0
4388,0
4389,0
4390,0
4391,0
4392,0
4393,0
4394,0
4395,0
4396,0
4397,0
4398,0
4399,0
4400,0
4401,0
4402,0
4403,0
4404,0
4405,0
4406,0
4407,0
4408,0
4409,0
4410,0
4411,0
4412,0
4413,0
4414,0
4415,0
4416,81
4417,298
4418,531
4419,607
4420,594
4421,605
4422,613
4423,597
4424,601
4425,582
4426,566
4427,576
4428,590
4429,608
4430,595
4431,606
4432,613
4433,593
4434,605
4435,621
4436,596
4437,608
4438,617
4439,596
4440,595
4441,612
4442,620
4443,597
4444,603
4445,612
4446,617
4447,595
4448,599
4449,613
4450,618
4451,595
4452,601
4453,614
4454,612
4455,593
4456,597
4457,609
4458,615
4459,596
4460,596
4461,601
4462,611
4463,605
4464,593
4465,609
4466,614
4467,606
4468,594
4469,611
4470,618
4471,601
4472,600
4473,609
4474,618
4475,594
4476,603
4477,611
4478,612
4479,596
4480,604
4481,619
4482,621
4483,604
4484,610
4485,617
4486,595
4487,606
4488,610
4489,615
4490,593
4491,602
4492,605
4493,616
4494,619
4495,601
4496,602
4497,619
4498,593
4499,603
4500,609
4501,621
4502,598
4503,606
4504,615
4505,586
4506,437
4507,253
4508,96
4509,0
4510,0
4511,0
4512,0
4513,0
4514,0
4515,0
4516,0
4517,0
4518,0
4519,0
4520,0
4521,0
4522,0
4523,0
4524,0
4525,0
4526,0
4527,0
4528,0
4529,0
4530,0
4531,0
4532,0
4533,0
4534,0
4535,0
4536,0
4537,0
4538,0
4539,0
4540,0
4541,0
4542,0
4543,26
4544,208
4545,440
4546,619
4547,603
4548,616
4549,600
4550,606
4551,618
4552,596
4553,609
4554,604
4555,605
4556,611
4557,605
4558,598
4559,609
4560,617
4561,597
4562,601
4563,612
4564,616
4565,598
4566,599
4567,609
4568,617
4569,597
4570,601
4571,614
4572,620
4573,598
4574,601
4575,614
4576,618
4577,598
4578,604
4579,616
4580,594
4581,606
4582,614
4583,597
4584,603
4585,614
4586,621
4587,600
4588,607
4589,617
4590,595
4591,605
4592,611
4593,594
4594,598
4595,608
4596,615
4597,597
4598,596
4599,612
4600,619
4601,596
4602,601
4603,613
4604,597
4605,597
4606,607
4607,617
4608,623
4609,602
4610,608
4611,620
4612,624
4613,610
4614,617
4615,594
4616,599
4617,612
4618,608
4619,600
4620,614
4621,596
4622,605
4623,619
4624,594
4625,607
4626,611
4627,597
4628,604
4629,615
4630,620
4631,600
4632,609
4633,615
4634,476
4635,297
4636,131
4637,4
4638,0
4639,0
4640,0
4641,0
4642,0
4643,0
4644,0
4645,0
4646,0
4647,0
4648,0
4649,0
4650,0
4651,0
4652,0
4653,0
4654,0
4655,0
4656,0
4657,0
4658,0
4659,0
4660,0
4661,0
4662,0
4663,0
4664,0
4665,0
4666,0
4667,0
4668,0
4669,0
4670,0
4671,29
4672,201
4673,425
4674,601
4675,618
4676,601
4677,614
4678,598
4679,604
4680,613
4681,599
4682,603
4683,596
4684,605
4685,620
4686,596
4687,607
4688,617
4689,595
4690,608
4691,623
4692,596
4693,607
4694,614
4695,594
4696,597
4697,613
4698,619
4699,601
4700,608
4701,619
4702,595
4703,599
4704,609
4705,624
4706,596
4707,609
4708,614
4709,611
4710,593
4711,609
4712,615
4713,624
4714,600
4715,610
4716,616
4717,620
4718,599
4719,609
4720,609
4721,594
4722,601
4723,614
4724,618
4725,601
4726,609
4727,618
4728,597
4729,608
4730,616
4731,621
4732,599
4733,611
4734,610
4735,622
4736,599
4737,611
4738,611
4739,598
4740,605
4741,617
4742,594
4743,604
4744,608
4745,614
4746,596
4747,604
4748,612
4749,594
4750,602
4751,614
4752,615
4753,600
4754,603
4755,615
4756,623
4757,603
4758,616
4759,604
4760,603
4761,613
4762,620
4763,598
4764,604
4765,613
4766,618
4767,599
4768,563
4769,386
4770,212
4771,70
4772,0
4773,0
4774,0
4775,0
4776,0
4777,0
4778,0
4779,0
4780,0
4781,0
4782,0
4783,0
4784,0
4785,0
4786,0
4787,0
4788,0
4789,0
4790,0
4791,0
4792,0
4793,0
4794,0
4795,0
4796,0
4797,0
4798,0
4799,0
4800,0
4801,0
4802,0
4803,0
4804,0
4805,0
4806,132
4807,334
4808,525
4809,594
4810,603
4811,621
4812,600
4813,616
4814,598
4815,614
4816,594
4817,592
4818,612
4819,604
4820,592
4821,607
4822,595
4823,606
4824,616
4825,600
4826,607
4827,622
4828,601
4829,612
4830,621
4831,604
4832,610
4833,620
4834,594
4835,604
4836,610
4837,621
4838,595
4839,606
4840,606
4841,598
4842,599
4843,611
4844,618
4845,596
4846,602
4847,609
4848,595
4849,606
4850,613
4851,594
4852,601
4853,612
4854,616
4855,605
4856,614
4857,596
4858,603
4859,614
4860,620
4861,595
4862,609
4863,619
4864,598
4865,605
4866,611
4867,601
4868,601
4869,609
4870,614
4871,594
4872,599
4873,611
4874,616
4875,594
4876,605
4877,618
4878,615
4879,603
4880,610
4881,621
4882,619
4883,596
4884,606
4885,619
4886,593
4887,604
4888,613
4889,620
4890,602
4891,610
4892,614
4893,595
4894,602
4895,612
4896,613
4897,599
4898,603
4899,616
4900,598
4901,603
4902,611
4903,618
4904,598
4905,610
4906,617
4907,598
4908,606
4909,618
4910,541
4911,375
4912,203
4913,69
4914,0
4915,0
4916,0
4917,0
4918,0
4919,0
4920,0
4921,0
4922,0
4923,0
4924,0
4925,0
4926,0
4927,0
4928,0
4929,0
4930,0
4931,0
4932,0
4933,0
4934,0
4935,0
4936,0
4937,0
4938,0
4939,0
4940,0
4941,0
4942,0
4943,0
4944,0
4945,0
4946,0
4947,0
4948,141
4949,353
4950,550
4951,604
4952,610
4953,601
4954,613
4955,597
4956,616
4957,600
4958,620
4959,602
4960,598
4961,599
4962,599
4963,592
4964,602
4965,617
4966,597
4967,612
4968,594
4969,600
4970,616
4971,600
4972,610
4973,620
4974,601
4975,617
4976,620
4977,601
4978,610
4979,596
4980,602
4981,620
4982,597
4983,611
4984,620
4985,605
4986,617
4987,596
4988,609
4989,597
4990,600
4991,615
4992,595
4993,608
4994,610
4995,599
4996,608
4997,593
4998,603
4999,617
5000,596
5001,603
5002,618
5003,602
5004,608
5005,623
5006,601
5007,615
5008,593
5009,609
5010,618
5011,600
5012,610
5013,596
5014,604
5015,618
5016,594
5017,608
5018,618
5019,600
5020,609
5021,593
5022,601
5023,616
5024,596
5025,608
5026,618
5027,601
5028,611
5029,596
5030,606
5031,595
5032,604
5033,619
5034,600
5035,617
5036,596
5037,613
5038,593
5039,611
5040,620
5041,602
5042,612
5043,593
5044,598
5045,612
5046,611
5047,607
5048,616
5049,561
5050,397
5051,222
5052,76
5053,0
5054,0
5055,0
5056,0
5057,0
5058,0
5059,0
5060,0
5061,0
5062,0
5063,0
5064,0
5065,0
5066,0
5067,0
5068,0
5069,0
5070,0
5071,0
5072,0
5073,0
5074,0
5075,0
5076,0
5077,0
5078,0
5079,0
5080,0
5081,0
5082,0
5083,0
5084,0
5085,0
5086,0
5087,100
5088,296
5089,486
5090,592
5091,611
5092,594
5093,612
5094,596
5095,612
5096,596
5097,593
5098,608
5099,600
5100,621
5101,606
5102,599
5103,605
5104,605
5105,607
5106,618
5107,602
5108,612
5109,597
5110,602
5111,620
5112,597
5113,613
5114,621
5115,605
5116,615
5117,598
5118,605
5119,617
5120,594
5121,606
5122,610
5123,596
5124,596
5125,612
5126,621
5127,598
5128,611
5129,594
5130,599
5131,605
5132,619
5133,604
5134,612
5135,594
5136,601
5137,616
5138,618
5139,604
5140,609
5141,621
5142,595
5143,606
5144,616
5145,595
5146,608
5147,621
5148,597
5149,612
5150,621
5151,601
5152,605
5153,595
5154,602
5155,614
5156,622
5157,604
5158,615
5159,595
5160,606
5161,619
5162,595
5163,609
5164,617
5165,599
5166,603
5167,594
5168,602
5169,618
5170,599
5171,613
5172,593
5173,603
5174,620
5175,605
5176,612
5177,593
5178,602
5179,617
5180,619
5181,606
5182,614
5183,594
5184,601
5185,614
5186,620
5187,599
5188,608
5189,531
5190,363
5191,193
5192,54
5193,0
5194,0
5195,0
5196,0
5197,0
5198,0
5199,0
5200,0
5201,0
5202,0
5203,0
5204,0
5205,0
5206,0
5207,0
5208,0
5209,0
5210,0
5211,0
5212,0
5213,0
5214,0
5215,0
5216,0
5217,0
5218,0
5219,0
5220,0
5221,0
5222,0
5223,0
5224,0
5225,0
5226,0
5227,132
5228,343
5229,548
5230,611
5231,601
5232,614
5233,602
5234,615
5235,601
5236,608
5237,603
5238,593
5239,590
5240,601
5241,593
5242,607
5243,618
5244,603
5245,620
5246,596
5247,611
5248,623
5249,603
5250,612
5251,598
5252,597
5253,614
5254,594
5255,607
5256,617
5257,599
5258,603
5259,619
5260,596
5261,606
5262,611
5263,593
5264,602
5265,618
5266,595
5267,609
5268,616
5269,600
5270,610
5271,594
5272,602
5273,615
5274,621
5275,603
5276,611
5277,624
5278,601
5279,616
5280,593
5281,607
5282,614
5283,594
5284,604
5285,616
5286,605
5287,605
5288,611
5289,594
5290,602
5291,615
5292,614
5293,603
5294,612
5295,624
5296,596
5297,609
5298,617
5299,600
5300,609
5301,624
5302,599
5303,612
5304,620
5305,601
5306,609
5307,622
5308,597
5309,609
5310,614
5311,595
5312,601
5313,611
5314,593
5315,605
5316,611
5317,594
5318,602
5319,616
5320,593
5321,605
5322,613
5323,595
5324,598
5325,619
5326,596
5327,604
5328,609
5329,622
5330,596
5331,606
5332,615
5333,595
5334,600
5335,576
5336,419
5337,247
5338,96
5339,0
5340,0
5341,0
5342,0
5343,0
5344,0
5345,0
5346,0
5347,0
5348,0
5349,0
5350,0
5351,0
5352,0
5353,0
5354,0
5355,0
5356,0
5357,0
5358,0
5359,0
5360,0
5361,0
5362,0
5363,0
5364,0
5365,0
5366,0
5367,0
5368,0
5369,0
5370,0
5371,0
5372,0
5373,94
5374,289
5375,489
5376,612
5377,598
5378,609
5379,598
5380,604
5381,597
5382,606
5383,579
5384,568
5385,578
5386,595
5387,610
5388,598
5389,614
5390,594
5391,607
5392,616
5393,600
5394,601
5395,618
5396,608
5397,602
5398,609
5399,620
5400,596
5401,601
5402,614
5403,594
5404,601
5405,611
5406,621
5407,601
5408,602
5409,619
5410,596
5411,609
5412,616
5413,596
5414,605
5415,612
5416,594
5417,605
5418,612
5419,593
5420,601
5421,611
5422,613
5423,598
5424,605
5425,617
5426,596
5427,607
5428,615
5429,620
5430,602
5431,614
5432,617
5433,602
5434,607
5435,619
5436,621
5437,606
5438,613
5439,593
5440,603
5441,619
5442,595
5443,602
5444,613
5445,596
5446,595
5447,613
5448,622
5449,603
5450,604
5451,617
5452,596
5453,602
5454,612
5455,595
5456,601
5457,608
5458,621
5459,602
5460,604
5461,617
5462,613
5463,600
5464,601
5465,617
5466,620
5467,597
5468,605
5469,618
5470,594
5471,602
5472,612
5473,594
5474,599
5475,610
5476,615
5477,596
5478,599
5479,615
5480,603
5481,602
5482,610
5483,596
5484,567
5485,386
5486,217
5487,74
5488,0
5489,0
5490,0
5491,0
5492,0
5493,0
5494,0
5495,0
5496,0
5497,0
5498,0
5499,0
5500,0
5501,0
5502,0
5503,0
5504,0
5505,0
5506,0
5507,0
5508,0
5509,0
5510,0
5511,0
5512,0
5513,0
5514,0
5515,0
5516,0
5517,0
5518,0
5519,0
5520,0
5521,0
5522,115
5523,321
5524,528
5525,612
5526,596
5527,609
5528,595
5529,610
5530,590
5531,571
5532,552
5533,547
5534,558
5535,588
5536,594
5537,610
5538,615
5539,603
5540,613
5541,596
5542,604
5543,618
5544,595
5545,608
5546,617
5547,599
5548,608
5549,623
5550,599
5551,614
5552,621
5553,603
5554,609
5555,621
5556,597
5557,606
5558,612
5559,593
5560,599
5561,610
5562,615
5563,595
5564,601
5565,611
5566,613
5567,596
5568,602
5569,615
5570,621
5571,601
5572,603
5573,608
5574,621
5575,601
5576,608
5577,620
5578,595
5579,606
5580,608
5581,599
5582,597
5583,607
5584,613
5585,596
5586,597
5587,606
5588,617
5589,596
5590,598
5591,611
5592,618
5593,597
5594,599
5595,613
5596,619
5597,605
5598,612
5599,597
5600,600
5601,609
5602,620
5603,599
5604,607
5605,619
5606,595
5607,609
5608,609
5609,595
5610,603
5611,618
5612,594
5613,601
5614,608
5615,614
5616,594
5617,604
5618,613
5619,593
5620,599
5621,611
5622,610
5623,593
5624,600
5625,612
5626,615
5627,595
5628,602
5629,609
5630,620
5631,602
5632,608
5633,599
5634,580
5635,428
5636,254
5637,104
5638,0
5639,0
5640,0
5641,0
5642,0
5643,0
5644,0
5645,0
5646,0
5647,0
5648,0
5649,0
5650,0
5651,0
5652,0
5653,0
5654,0
5655,0
5656,0
5657,0
5658,0
5659,0
5660,0
5661,0
5662,0
5663,0
5664,0
5665,0
5666,0
5667,0
5668,0
5669,0
5670,0
5671,0
5672,73
5673,270
5674,482
5675,612
5676,598
5677,615
5678,592
5679,617
5680,598
5681,586
5682,576
5683,564
5684,567
5685,588
5686,604
5687,598
5688,605
5689,597
5690,606
5691,619
5692,593
5693,614
5694,594
5695,602
5696,614
5697,596
5698,602
5699,611
5700,624
5701,607
5702,608
5703,620
5704,599
5705,615
5706,618
5707,604
5708,612
5709,597
5710,606
5711,620
5712,597
5713,601
5714,615
5715,597
5716,607
5717,620
5718,595
5719,606
5720,608
5721,594
5722,603
5723,616
5724,611
5725,607
5726,614
5727,597
5728,605
5729,620
5730,596
5731,608
5732,616
5733,596
5734,607
5735,618
5736,595
5737,605
5738,615
5739,597
5740,602
5741,613
5742,621
5743,601
5744,609
5745,599
5746,601
5747,614
5748,616
5749,601
5750,609
5751,623
5752,597
5753,609
5754,616
5755,595
5756,605
5757,615
5758,594
5759,606
5760,612
5761,612
5762,596
5763,608
5764,613
5765,595
5766,601
5767,616
5768,593
5769,607
5770,612
5771,594
5772,602
5773,613
5774,620
5775,600
5776,607
5777,617
5778,594
5779,604
5780,608
5781,619
5782,595
5783,606
5784,611
5785,477
5786,302
5787,142
5788,16
5789,0
5790,0
5791,0
5792,0
5793,0
5794,0
5795,0
5796,0
5797,0
5798,0
5799,0
5800,0
5801,0
5802,0
5803,0
5804,0
5805,0
5806,0
5807,0
5808,0
5809,0
5810,0
5811,0
5812,0
5813,0
5814,0
5815,0
5816,0
5817,0
5818,0
5819,0
5820,0
5821,0
5822,23
5823,192
5824,413
5825,585
5826,606
5827,622
5828,601
5829,608
5830,592
5831,569
5832,546
5833,542
5834,549
5835,587
5836,601
5837,600
5838,611
5839,598
5840,608
5841,593
5842,600
5843,609
5844,593
5845,610
5846,618
5847,599
5848,606
5849,621
5850,594
5851,611
5852,619
5853,601
5854,608
5855,621
5856,598
5857,605
5858,617
5859,595
5860,602
5861,616
5862,594
5863,604
5864,608
5865,596
5866,603
5867,617
5868,594
5869,604
5870,611
5871,614
5872,595
5873,607
5874,615
5875,598
5876,605
5877,620
5878,602
5879,607
5880,613
5881,593
5882,599
5883,608
5884,615
5885,621
5886,602
5887,617
5888,622
5889,603
5890,615
5891,595
5892,597
5893,614
5894,623
5895,602
5896,607
5897,619
5898,594
5899,603
5900,614
5901,594
5902,601
5903,614
5904,621
5905,603
5906,605
5907,621
5908,597
5909,612
5910,617
5911,598
5912,605
5913,614
5914,593
5915,605
5916,608
5917,594
5918,601
5919,612
5920,612
5921,597
5922,605
5923,611
5924,623
5925,602
5926,605
5927,614
5928,594
5929,610
5930,609
5931,594
5932,597
5933,609
5934,609
5935,594
5936,599
5937,604
5938,618
5939,533
5940,364
5941,196
5942,59
5943,0
5944,0
5945,0
5946,0
5947,0
5948,0
5949,0
5950,0
5951,0
5952,0
5953,0
5954,0
5955,0
5956,0
5957,0
5958,0
5959,0
5960,0
5961,0
5962,0
5963,0
5964,0
5965,0
5966,0
5967,0
5968,0
5969,0
5970,0
5971,0
5972,0
5973,0
5974,0
5975,0
5976,4
5977,149
5978,358
5979,547
5980,607
5981,593
5982,602
5983,621
5984,594
5985,563
5986,530
5987,509
5988,523
5989,558
5990,594
5991,609
5992,592
5993,607
5994,616
5995,599
5996,605
5997,615
5998,604
5999,605
6000,609
6001,618
6002,596
6003,605
6004,612
6005,622
6006,595
6007,607
6008,615
6009,595
6010,599
6011,608
6012,615
6013,594
6014,601
6015,613
6016,619
6017,597
6018,602
6019,614
6020,620
6021,599
6022,604
6023,616
6024,609
6025,602
6026,608
6027,623
6028,597
6029,611
6030,618
6031,595
6032,600
6033,614
6034,620
6035,599
6036,607
6037,619
6038,594
6039,607
6040,615
6041,597
6042,602
6043,615
6044,620
6045,600
6046,607
6047,618
6048,595
6049,606
6050,604
6051,621
6052,599
6053,614
6054,606
6055,603
6056,613
6057,620
6058,599
6059,609
6060,617
6061,598
6062,601
6063,616
6064,619
6065,605
6066,608
6067,621
6068,596
6069,605
6070,607
6071,615
6072,597
6073,610
6074,618
6075,600
6076,606
6077,617
6078,619
6079,605
6080,614
6081,597
6082,604
6083,612
6084,621
6085,597
6086,610
6087,594
6088,600
6089,611
6090,620
6091,599
6092,601
6093,618
6094,593
6095,602
6096,605
6097,470
6098,297
6099,138
6100,13
6101,0
6102,0
6103,0
6104,0
6105,0
6106,0
6107,0
6108,0
6109,0
6110,0
6111,0
6112,0
6113,0
6114,0
6115,0
6116,0
6117,0
6118,0
6119,0
6120,0
6121,0
6122,0
6123,0
6124,0
6125,0
6126,0
6127,0
6128,0
6129,0
6130,0
6131,0
6132,0
6133,0
6134,44
6135,229
6136,445
6137,602
6138,604
6139,622
6140,600
6141,608
6142,595
6143,614
6144,582
6145,566
6146,558
6147,594
6148,604
6149,605
6150,615
6151,600
6152,608
6153,593
6154,604
6155,610
6156,594
6157,607
6158,611
6159,596
6160,601
6161,613
6162,618
6163,602
6164,612
6165,618
6166,602
6167,614
6168,622
6169,597
6170,609
6171,619
6172,620
6173,606
6174,613
6175,593
6176,597
6177,614
6178,594
6179,601
6180,611
6181,624
6182,599
6183,605
6184,619
6185,598
6186,600
6187,611
6188,619
6189,599
6190,601
6191,620
6192,594
6193,603
6194,612
6195,595
6196,601
6197,611
6198,601
6199,602
6200,610
6201,595
6202,601
6203,613
6204,616
6205,605
6206,611
6207,594
6208,600
6209,614
6210,598
6211,599
6212,610
6213,620
6214,596
6215,610
6216,618
6217,597
6218,606
6219,624
6220,599
6221,612
6222,619
6223,601
6224,609
6225,621
6226,595
6227,607
6228,618
6229,599
6230,605
6231,619
6232,596
6233,610
6234,619
6235,597
6236,607
6237,621
6238,599
6239,609
6240,617
6241,597
6242,606
6243,619
6244,597
6245,609
6246,616
6247,596
6248,603
6249,615
6250,624
6251,602
6252,608
6253,483
6254,313
6255,151
6256,25
6257,0
6258,0
6259,0
6260,0
6261,0
6262,0
6263,0
6264,0
6265,0
6266,0
6267,0
6268,0
6269,0
6270,0
6271,0
6272,0
6273,0
6274,0
6275,0
6276,0
6277,0
6278,0
6279,0
6280,0
6281,0
6282,0
6283,0
6284,0
6285,0
6286,0
6287,0
6288,0
6289,0
6290,32
6291,209
6292,428
6293,591
6294,604
6295,612
6296,603
6297,592
6298,595
6299,570
6300,519
6301,510
6302,526
6303,561
6304,617
6305,604
6306,615
6307,605
6308,612
6309,594
6310,602
6311,617
6312,595
6313,600
6314,611
6315,622
6316,597
6317,611
6318,617
6319,599
6320,601
6321,618
6322,593
6323,601
6324,607
6325,619
6326,593
6327,599
6328,610
6329,622
6330,594
6331,605
6332,613
6333,595
6334,597
6335,613
6336,621
6337,605
6338,612
6339,594
6340,602
6341,609
6342,621
6343,599
6344,604
6345,615
6346,598
6347,607
6348,605
6349,620
6350,596
6351,606
6352,611
6353,595
6354,600
6355,608
6356,621
6357,601
6358,609
6359,620
6360,596
6361,609
6362,610
6363,594
6364,600
6365,610
6366,619
6367,598
6368,604
6369,610
6370,593
6371,606
6372,615
6373,598
6374,602
6375,613
6376,616
6377,603
6378,611
6379,615
6380,598
6381,609
6382,616
6383,597
6384,603
6385,616
6386,597
6387,604
6388,611
6389,593
6390,596
6391,613
6392,620
6393,598
6394,606
6395,617
6396,594
6397,602
6398,615
6399,595
6400,601
6401,624
6402,601
6403,612
6404,613
6405,600
6406,605
6407,609
6408,597
6409,603
6410,611
6411,541
6412,378
6413,211
6414,71
6415,0
6416,0
6417,0
6418,0
6419,0
6420,0
6421,0
6422,0
6423,0
6424,0
6425,0
6426,0
6427,0
6428,0
6429,0
6430,0
6431,0
6432,0
6433,0
6434,0
6435,0
6436,0
6437,0
6438,0
6439,0
6440,0
6441,0
6442,0
6443,0
6444,0
6445,0
6446,0
6447,0
6448,0
6449,128
6450,342
6451,542
6452,597
6453,606
6454,594
6455,608
6456,593
6457,576
6458,547
6459,537
6460,542
6461,544
6462,582
6463,612
6464,595
6465,610
6466,620
6467,603
6468,611
6469,595
6470,601
6471,614
6472,593
6473,602
6474,605
6475,618
6476,594
6477,603
6478,609
6479,620
6480,594
6481,606
6482,614
6483,598
6484,604
6485,613
6486,620
6487,600
6488,602
6489,612
6490,619
6491,596
6492,604
6493,616
6494,621
6495,601
6496,605
6497,617
6498,593
6499,601
6500,602
6501,612
6502,616
6503,597
6504,601
6505,611
6506,618
6507,596
6508,603
6509,615
6510,621
6511,601
6512,607
6513,617
6514,593
6515,604
6516,608
6517,616
6518,595
6519,605
6520,610
6521,619
6522,594
6523,604
6524,610
6525,621
6526,593
6527,600
6528,606
6529,618
6530,593
6531,604
6532,613
6533,596
6534,601
6535,608
6536,613
6537,596
6538,604
6539,618
6540,593
6541,602
6542,615
6543,596
6544,605
6545,619
6546,595
6547,606
6548,607
6549,596
6550,602
6551,619
6552,594
6553,605
6554,610
6555,616
6556,597
6557,609
6558,619
6559,597
6560,604
6561,612
6562,610
6563,595
6564,598
6565,606
6566,613
6567,593
6568,538
6569,372
6570,205
6571,66
6572,0
6573,0
6574,0
6575,0
6576,0
6577,0
6578,0
6579,0
6580,0
6581,0
6582,0
6583,0
6584,0
6585,0
6586,0
6587,0
6588,0
6589,0
6590,0
6591,0
6592,0
6593,0
6594,0
6595,0
6596,0
6597,0
6598,0
6599,0
6600,0
6601,0
6602,0
6603,0
6604,0
6605,0
6606,120
6607,328
6608,527
6609,596
6610,607
6611,619
6612,602
6613,588
6614,558
6615,529
6616,517
6617,523
6618,548
6619,604
6620,603
6621,593
6622,603
6623,620
6624,597
6625,605
6626,617
6627,601
6628,607
6629,621
6630,593
6631,605
6632,603
6633,620
6634,597
6635,609
6636,616
6637,598
6638,607
6639,613
6640,595
6641,607
6642,609
6643,595
6644,603
6645,613
6646,614
6647,602
6648,608
6649,615
6650,597
6651,609
6652,618
6653,596
6654,610
6655,621
6656,620
6657,605
6658,611
6659,621
6660,601
6661,609
6662,616
6663,619
6664,599
6665,609
6666,615
6667,623
6668,603
6669,615
6670,614
6671,595
6672,604
6673,617
6674,621
6675,606
6676,614
6677,597
6678,604
6679,619
6680,595
6681,602
6682,615
6683,596
6684,603
6685,618
6686,600
6687,604
6688,607
6689,595
6690,601
6691,615
6692,623
6693,604
6694,612
6695,620
6696,602
6697,615
6698,594
6699,609
6700,620
6701,602
6702,611
6703,620
6704,598
6705,613
6706,620
6707,600
6708,604
6709,616
6710,595
6711,606
6712,611
6713,593
6714,599
6715,609
6716,618
6717,598
6718,604
6719,615
6720,598
6721,606
6722,611
6723,614
6724,598
6725,608
6726,533
6727,366
6728,198
6729,62
6730,0
6731,0
6732,0
6733,0
6734,0
6735,0
6736,0
6737,0
6738,0
6739,0
6740,0
6741,0
6742,0
6743,0
6744,0
6745,0
6746,0
6747,0
6748,0
6749,0
6750,0
6751,0
6752,0
6753,0
6754,0
6755,0
6756,0
6757,0
6758,0
6759,0
6760,0
6761,0
6762,0
6763,0
6764,138
6765,351
6766,547
6767,604
6768,615
6769,602
6770,612
6771,596
6772,569
6773,544
6774,532
6775,531
6776,576
6777,585
6778,592
6779,607
6780,618
6781,604
6782,614
6783,596
6784,609
6785,593
6786,602
6787,614
6788,623
6789,602
6790,606
6791,593
6792,599
6793,612
6794,620
6795,600
6796,612
6797,624
6798,601
6799,614
6800,620
6801,601
6802,610
6803,622
6804,594
6805,615
6806,597
6807,608
6808,617
6809,601
6810,607
6811,616
6812,598
6813,611
6814,620
6815,600
6816,609
6817,601
6818,595
6819,613
6820,620
6821,603
6822,611
6823,598
6824,601
6825,610
6826,593
6827,606
6828,613
6829,594
6830,598
6831,612
6832,614
6833,600
6834,605
6835,620
6836,598
6837,610
6838,618
6839,596
6840,608
6841,621
6842,598
6843,611
6844,617
6845,599
6846,600
6847,621
6848,596
6849,609
6850,617
6851,596
6852,605
6853,612
6854,594
6855,607
6856,615
6857,599
6858,607
6859,620
6860,594
6861,608
6862,617
6863,606
6864,605
6865,622
6866,600
6867,610
6868,593
6869,607
6870,616
6871,597
6872,606
6873,621
6874,594
6875,615
6876,594
6877,603
6878,610
6879,601
6880,599
6881,606
6882,617
6883,598
6884,600
6885,615
6886,491
6887,322
6888,164
6889,37
6890,0
6891,0
6892,0
6893,0
6894,0
6895,0
6896,0
6897,0
6898,0
6899,0
6900,0
6901,0
6902,0
6903,0
6904,0
6905,0
6906,0
6907,0
6908,0
6909,0
6910,0
6911,0
6912,0
6913,0
6914,0
6915,0
6916,0
6917,0
6918,0
6919,0
6920,0
6921,0
6922,0
6923,33
6924,205
6925,426
6926,590
6927,619
6928,602
6929,592
6930,600
6931,587
6932,557
6933,529
6934,517
6935,522
6936,560
6937,602
6938,601
6939,617
6940,597
6941,612
6942,594
6943,609
6944,623
6945,607
6946,617
6947,601
6948,609
6949,619
6950,596
6951,609
6952,618
6953,600
6954,612
6955,597
6956,606
6957,621
6958,597
6959,611
6960,618
6961,600
6962,607
6963,620
6964,600
6965,615
6966,594
6967,605
6968,614
6969,597
6970,608
6971,620
6972,594
6973,610
6974,621
6975,602
6976,615
6977,595
6978,603
6979,614
6980,619
6981,599
6982,605
6983,618
6984,593
6985,602
6986,607
6987,623
6988,598
6989,610
6990,623
6991,601
6992,609
6993,594
6994,602
6995,615
6996,596
6997,608
6998,615
6999,596
7000,603
7001,615
7002,611
7003,606
7004,610
7005,621
7006,597
7007,607
7008,613
7009,594
7010,600
7011,612
7012,620
7013,603
7014,612
7015,594
7016,600
7017,615
7018,619
7019,607
7020,614
7021,595
7022,601
7023,613
7024,621
7025,600
7026,612
7027,594
7028,602
7029,617
7030,597
7031,610
7032,615
7033,602
7034,608
7035,620
7036,594
7037,606
7038,613
7039,623
7040,601
7041,615
7042,621
7043,595
7044,603
7045,611
7046,610
7047,596
7048,530
7049,346
7050,180
7051,48
7052,0
7053,0
7054,0
7055,0
7056,0
7057,0
7058,0
7059,0
7060,0
7061,0
7062,0
7063,0
7064,0
7065,0
7066,0
7067,0
7068,0
7069,0
7070,0
7071,0
7072,0
7073,0
7074,0
7075,0
7076,0
7077,0
7078,0
7079,0
7080,0
7081,0
7082,0
7083,0
7084,0
7085,13
7086,164
7087,373
7088,569
7089,611
7090,597
7091,614
7092,600
7093,588
7094,555
7095,530
7096,516
7097,545
7098,560
7099,604
7100,599
7101,597
7102,602
7103,593
7104,604
7105,623
7106,602
7107,616
7108,596
7109,605
7110,621
7111,607
7112,617
7113,600
7114,610
7115,595
7116,598
7117,617
7118,593
7119,605
7120,614
7121,594
7122,601
7123,609
7124,623
7125,605
7126,609
7127,595
7128,605
7129,620
7130,608
7131,612
7132,618
7133,600
7134,612
7135,595
7136,603
7137,610
7138,593
7139,605
7140,608
7141,593
7142,605
7143,617
7144,621
7145,607
7146,618
7147,598
7148,606
7149,618
7150,594
7151,602
7152,616
7153,597
7154,600
7155,612
7156,593
7157,606
7158,610
7159,595
7160,602
7161,616
7162,593
7163,607
7164,612
7165,620
7166,601
7167,616
7168,593
7169,606
7170,613
7171,595
7172,599
7173,616
7174,594
7175,608
7176,617
7177,596
7178,603
7179,610
7180,593
7181,606
7182,613
7183,594
7184,599
7185,609
7186,615
7187,599
7188,606
7189,619
7190,593
7191,602
7192,608
7193,621
7194,595
7195,607
7196,613
7197,594
7198,602
7199,617
7200,595
7201,611
7202,617
7203,595
7204,601
7205,614
7206,601
7207,601
7208,606
7209,618
7210,594
7211,593
7212,453
7213,280
7214,128
7215,8
7216,0
7217,0
7218,0
7219,0
7220,0
7221,0
7222,0
7223,0
7224,0
7225,0
7226,0
7227,0
7228,0
7229,0
7230,0
7231,0
7232,0
7233,0
7234,0
7235,0
7236,0
7237,0
7238,0
7239,0
7240,0
7241,0
7242,0
7243,0
7244,0
7245,0
7246,0
7247,0
7248,0
7249,64
7250,247
7251,445
7252,606
7253,600
7254,608
7255,594
7256,603
7257,570
7258,529
7259,502
7260,513
7261,538
7262,598
7263,608
7264,593
7265,608
7266,618
7267,600
7268,613
7269,597
7270,606
7271,620
7272,597
7273,608
7274,612
7275,596
7276,602
7277,615
7278,622
7279,603
7280,611
7281,619
7282,600
7283,614
7284,593
7285,606
7286,617
7287,600
7288,604
7289,621
7290,596
7291,608
7292,616
7293,598
7294,608
7295,616
7296,598
7297,613
7298,617
7299,604
7300,613
7301,593
7302,597
7303,615
7304,621
7305,602
7306,608
7307,620
7308,594
7309,602
7310,614
7311,597
7312,604
7313,619
7314,596
7315,606
7316,611
7317,598
7318,609
7319,621
7320,598
7321,611
7322,618
7323,594
7324,606
7325,621
7326,597
7327,607
7328,616
7329,596
7330,599
7331,617
7332,596
7333,610
7334,619
7335,601
7336,609
7337,620
7338,603
7339,617
7340,594
7341,610
7342,615
7343,597
7344,604
7345,595
7346,601
7347,614
7348,621
7349,601
7350,608
7351,615
7352,598
7353,612
7354,623
7355,604
7356,610
7357,623
7358,600
7359,609
7360,618
7361,602
7362,613
7363,597
7364,608
7365,618
7366,603
7367,614
7368,620
7369,607
7370,613
7371,595
7372,601
7373,618
7374,597
7375,605
7376,535
7377,377
7378,211
7379,73
7380,0
7381,0
7382,0
7383,0
7384,0
7385,0
7386,0
7387,0
7388,0
7389,0
7390,0
7391,0
7392,0
7393,0
7394,0
7395,0
7396,0
7397,0
7398,0
7399,0
7400,0
7401,0
7402,0
7403,0
7404,0
7405,0
7406,0
7407,0
7408,0
7409,0
7410,0
7411,0
7412,0
7413,10
7414,155
7415,346
7416,506
7417,609
7418,598
7419,567
7420,515
7421,466
7422,453
7423,454
7424,497
7425,561
7426,592
7427,610
7428,593
7429,608
7430,612
7431,602
7432,609
7433,593
7434,602
7435,617
7436,594
7437,609
7438,619
7439,602
7440,611
7441,620
7442,597
7443,611
7444,619
7445,600
7446,609
7447,622
7448,598
7449,611
7450,620
7451,604
7452,610
7453,594
7454,598
7455,607
7456,613
7457,594
7458,600
7459,615
7460,604
7461,603
7462,614
7463,597
7464,603
7465,619
7466,598
7467,611
7468,620
7469,600
7470,608
7471,602
7472,598
7473,609
7474,616
7475,597
7476,610
7477,621
7478,598
7479,610
7480,620
7481,600
7482,607
7483,622
7484,598
7485,611
7486,620
7487,600
7488,608
7489,622
7490,600
7491,616
7492,617
7493,606
7494,616
7495,597
7496,608
7497,621
7498,599
7499,611
7500,620
7501,605
7502,610
7503,596
7504,605
7505,616
7506,594
7507,609
7508,616
7509,624
7510,607
7511,622
7512,599
7513,616
7514,596
7515,607
7516,613
7517,600
7518,608
7519,603
7520,600
7521,612
7522,620
7523,597
7524,613
7525,597
7526,608
7527,621
7528,599
7529,613
7530,622
7531,608
7532,617
7533,600
7534,608
7535,600
7536,600
7537,608
7538,594
7539,610
7540,618
7541,602
7542,608
7543,623
7544,596
7545,614
7546,619
7547,606
7548,612
7549,526
7550,358
7551,195
7552,62
7553,0
7554,0
7555,0
7556,0
7557,0
7558,0
7559,0
7560,0
7561,0
7562,0
7563,0
7564,0
7565,0
7566,0
7567,0
7568,0
7569,0
7570,0
7571,0
7572,0
7573,0
7574,0
7575,0
7576,0
7577,0
7578,0
7579,0
7580,0
7581,0
7582,0
7583,0
7584,0
7585,0
7586,22
7587,179
7588,381
7589,553
7590,622
7591,607
7592,592
7593,603
7594,579
7595,546
7596,514
7597,494
7598,523
7599,560
7600,602
7601,602
7602,619
7603,606
7604,617
7605,602
7606,612
7607,593
7608,607
7609,620
7610,594
7611,614
7612,596
7613,605
7614,609
7615,597
7616,605
7617,612
7618,594
7619,608
7620,621
7621,597
7622,612
7623,595
7624,602
7625,621
7626,600
7627,613
7628,617
7629,602
7630,612
7631,623
7632,604
7633,618
7634,595
7635,604
7636,620
7637,600
7638,602
7639,618
7640,596
7641,609
7642,615
7643,602
7644,610
7645,596
7646,603
7647,620
7648,601
7649,610
7650,624
7651,603
7652,609
7653,593
7654,600
7655,612
7656,615
7657,600
7658,610
7659,608
7660,600
7661,613
7662,619
7663,594
7664,602
7665,614
7666,620
7667,601
7668,610
7669,619
7670,595
7671,608
7672,615
7673,596
7674,602
7675,618
7676,607
7677,601
7678,608
7679,612
7680,599
7681,611
7682,618
7683,598
7684,608
7685,595
7686,601
7687,614
7688,619
7689,600
7690,611
7691,593
7692,600
7693,614
7694,620
7695,601
7696,611
7697,594
7698,601
7699,612
7700,621
7701,602
7702,610
7703,594
7704,601
7705,616
7706,594
7707,610
7708,620
7709,601
7710,610
7711,594
7712,603
7713,620
7714,597
7715,611
7716,619
7717,601
7718,611
7719,598
7720,605
7721,622
7722,602
7723,618
7724,597
7725,614
7726,595
7727,608
7728,596
7729,505
7730,327
7731,165
7732,34
7733,0
7734,0
7735,0
7736,0
7737,0
7738,0
7739,0
7740,0
7741,0
7742,0
7743,0
7744,0
7745,0
7746,0
7747,0
7748,0
7749,0
7750,0
7751,0
7752,0
7753,0
7754,0
7755,0
7756,0
7757,0
7758,0
7759,0
7760,0
7761,0
7762,0
7763,0
7764,0
7765,0
7766,39
7767,221
7768,444
7769,616
7770,599
7771,623
7772,595
7773,619
7774,605
7775,595
7776,602
7777,580
7778,569
7779,572
7780,600
7781,603
7782,593
7783,613
7784,599
7785,614
7786,621
7787,608
7788,623
7789,607
7790,619
7791,604
7792,615
7793,594
7794,609
7795,597
7796,599
7797,614
7798,594
7799,607
7800,614
7801,605
7802,616
7803,597
7804,605
7805,621
7806,598
7807,609
7808,594
7809,604
7810,612
7811,623
7812,601
7813,615
7814,620
7815,606
7816,619
7817,598
7818,608
7819,612
7820,599
7821,612
7822,595
7823,612
7824,619
7825,604
7826,612
7827,595
7828,602
7829,621
7830,597
7831,610
7832,619
7833,598
7834,605
7835,616
7836,598
7837,610
7838,620
7839,603
7840,613
7841,594
7842,597
7843,618
7844,597
7845,612
7846,593
7847,610
7848,623
7849,603
7850,617
7851,599
7852,604
7853,595
7854,602
7855,613
7856,615
7857,604
7858,612
7859,593
7860,608
7861,603
7862,600
7863,606
7864,554
7865,406
7866,250
7867,120
7868,24
7869,0
7870,0
7871,0
7872,0
7873,0
7874,0
7875,0
7876,0
7877,0
7878,0
7879,0
7880,0
7881,0
7882,0
7883,0
7884,0
7885,0
7886,0
7887,0
7888,0
7889,0
7890,0
7891,0
7892,0
7893,0
7894,0
7895,0
7896,0
7897,0
7898,0
7899,0
7900,73
7901,270
7902,506
7903,605
7904,617
7905,601
7906,607
7907,610
7908,598
7909,609
7910,593
7911,612
7912,597
7913,615
7914,599
7915,618
7916,598
7917,614
7918,594
7919,612
7920,593
7921,605
7922,615
7923,598
7924,610
7925,595
7926,606
7927,621
7928,597
7929,613
7930,595
7931,608
7932,619
7933,604
7934,614
7935,600
7936,611
7937,594
7938,603
7939,620
7940,599
7941,613
7942,621
7943,602
7944,607
7945,624
7946,602
7947,614
7948,624
7949,603
7950,614
7951,596
7952,604
7953,618
7954,599
7955,614
7956,616
7957,607
7958,617
7959,599
7960,606
7961,621
7962,597
7963,614
7964,620
7965,602
7966,609
7967,610
7968,598
7969,611
7970,619
7971,601
7972,610
7973,595
7974,604
7975,621
7976,599
7977,617
7978,596
7979,613
7980,621
7981,605
7982,617
7983,602
7984,613
7985,594
7986,597
7987,618
7988,594
7989,606
7990,618
7991,497
7992,330
7993,182
7994,68
7995,0
7996,0
7997,0
7998,0
7999,0
8000,0
8001,0
8002,0
8003,0
8004,0
8005,0
8006,0
8007,0
8008,0
8009,0
8010,0
8011,0
8012,0
8013,0
8014,0
8015,0
8016,0
8017,0
8018,0
8019,0
8020,0
8021,0
8022,0
8023,0
8024,0
8025,0
8026,0
8027,68
8028,262
8029,489
8030,607
8031,596
8032,607
8033,593
8034,604
8035,617
8036,605
8037,594
8038,604
8039,621
8040,603
8041,594
8042,597
8043,618
8044,598
8045,611
8046,598
8047,614
8048,595
8049,604
8050,620
8051,604
8052,613
8053,598
8054,609
8055,594
8056,599
8057,619
8058,598
8059,612
8060,593
8061,610
8062,619
8063,596
8064,609
8065,600
8066,601
8067,614
8068,607
8069,607
8070,610
8071,596
8072,602
8073,615
8074,594
8075,608
8076,617
8077,596
8078,608
8079,620
8080,598
8081,615
8082,621
8083,604
8084,607
8085,594
8086,604
8087,618
8088,597
8089,611
8090,618
8091,624
8092,604
8093,618
8094,621
8095,608
8096,621
8097,605
8098,611
8099,599
8100,606
8101,614
8102,597
8103,612
8104,619
8105,598
8106,611
8107,593
8108,598
8109,620
8110,597
8111,615
8112,620
8113,609
8114,617
8115,594
8116,586
8117,421
8118,260
8119,126
8120,23
8121,0
8122,0
8123,0
8124,0
8125,0
8126,0
8127,0
8128,0
8129,0
8130,0
8131,0
8132,0
8133,0
8134,0
8135,0
8136,0
8137,0
8138,0
8139,0
8140,0
8141,0
8142,0
8143,0
8144,0
8145,0
8146,0
8147,0
8148,0
8149,0
8150,0
8151,0
8152,17
8153,174
8154,389
8155,602
8156,602
8157,617
8158,599
8159,618
8160,599
8161,617
8162,598
8163,616
8164,601
8165,596
8166,609
8167,596
8168,605
8169,612
8170,599
8171,612
8172,607
8173,604
8174,613
8175,594
8176,605
8177,622
8178,599
8179,611
8180,619
8181,601
8182,610
8183,620
8184,597
8185,607
8186,615
8187,597
8188,606
8189,621
8190,596
8191,612
8192,621
8193,605
8194,614
8195,596
8196,606
8197,620
8198,598
8199,612
8200,620
8201,601
8202,613
8203,593
8204,603
8205,617
8206,596
8207,607
8208,616
8209,598
8210,605
8211,619
8212,595
8213,609
8214,616
8215,597
8216,604
8217,619
8218,594
8219,607
8220,616
8221,595
8222,604
8223,617
8224,594
8225,603
8226,610
8227,622
8228,595
8229,607
8230,622
8231,601
8232,610
8233,593
8234,606
8235,614
8236,597
8237,615
8238,621
8239,603
8240,612
8241,595
8242,595
8243,612
8244,619
8245,602
8246,524
8247,346
8248,169
8249,25
8250,0
8251,0
8252,0
8253,0
8254,0
8255,0
8256,0
8257,0
8258,0
8259,0
8260,0
8261,0
8262,0
8263,0
8264,0
8265,0
8266,0
8267,0
8268,0
8269,0
8270,0
8271,0
8272,0
8273,0
8274,0
8275,0
8276,0
8277,0
8278,0
8279,0
8280,0
8281,0
8282,0
8283,0
8284,134
8285,359
8286,577
8287,612
8288,593
8289,606
8290,614
8291,595
8292,606
8293,594
8294,606
8295,597
8296,609
8297,599
8298,606
8299,598
8300,605
8301,621
8302,596
8303,611
8304,620
8305,598
8306,611
8307,595
8308,605
8309,620
8310,598
8311,613
8312,614
8313,597
8314,605
8315,616
8316,594
8317,602
8318,612
8319,619
8320,600
8321,614
8322,621
8323,600
8324,606
8325,619
8326,621
8327,610
8328,615
8329,596
8330,604
8331,614
8332,602
8333,602
8334,616
8335,598
8336,598
8337,618
8338,596
8339,610
8340,615
8341,603
8342,610
8343,616
8344,600
8345,614
8346,618
8347,596
8348,609
8349,622
8350,611
8351,609
8352,618
8353,601
8354,606
8355,596
8356,603
8357,612
8358,596
8359,610
8360,616
8361,595
8362,609
8363,620
8364,595
8365,608
8366,618
8367,599
8368,596
8369,614
8370,621
8371,602
8372,610
8373,593
8374,601
8375,587
8376,413
8377,229
8378,70
8379,0
8380,0
8381,0
8382,0
8383,0
8384,0
8385,0
8386,0
8387,0
8388,0
8389,0
8390,0
8391,0
8392,0
8393,0
8394,0
8395,0
8396,0
8397,0
8398,0
8399,0
8400,0
8401,0
8402,0
8403,0
8404,0
8405,0
8406,0
8407,0
8408,0
8409,0
8410,0
8411,0
8412,0
8413,5
8414,165
8415,395
8416,615
8417,605
8418,618
8419,605
8420,613
8421,601
8422,607
8423,593
8424,601
8425,620
8426,600
8427,618
8428,600
8429,616
8430,596
8431,614
8432,593
8433,607
8434,614
8435,600
8436,611
8437,594
8438,603
8439,616
8440,598
8441,605
8442,612
8443,594
8444,602
8445,614
8446,598
8447,605
8448,614
8449,596
8450,603
8451,616
8452,605
8453,604
8454,609
8455,621
8456,596
8457,608
8458,617
8459,595
8460,608
8461,621
8462,597
8463,608
8464,617
8465,600
8466,607
8467,621
8468,599
8469,611
8470,611
8471,595
8472,603
8473,614
8474,593
8475,606
8476,613
8477,625
8478,609
8479,620
8480,598
8481,610
8482,618
8483,600
8484,605
8485,594
8486,601
8487,615
8488,594
8489,606
8490,615
8491,615
8492,605
8493,618
8494,600
8495,613
8496,621
8497,602
8498,602
8499,620
8500,597
8501,611
8502,618
8503,598
8504,606
8505,616
8506,537
8507,361
8508,177
8509,27
8510,0
8511,0
8512,0
8513,0
8514,0
8515,0
8516,0
8517,0
8518,0
8519,0
8520,0
8521,0
8522,0
8523,0
8524,0
8525,0
8526,0
8527,0
8528,0
8529,0
8530,0
8531,0
8532,0
8533,0
8534,0
8535,0
8536,0
8537,0
8538,0
8539,0
8540,0
8541,0
8542,0
8543,0
8544,9
8545,175
8546,415
8547,606
8548,598
8549,616
8550,595
8551,611
8552,592
8553,607
8554,616
8555,606
8556,592
8557,605
8558,621
8559,604
8560,617
8561,597
8562,612
8563,596
8564,604
8565,616
8566,594
8567,609
8568,612
8569,603
8570,612
8571,594
8572,601
8573,614
8574,621
8575,596
8576,607
8577,620
8578,594
8579,613
8580,622
8581,605
8582,608
8583,595
8584,601
8585,612
8586,595
8587,610
8588,620
8589,598
8590,611
8591,595
8592,598
8593,617
8594,595
8595,607
8596,611
8597,599
8598,609
8599,618
8600,601
8601,617
8602,595
8603,605
8604,617
8605,597
8606,604
8607,620
8608,597
8609,615
8610,620
8611,606
8612,614
8613,596
8614,603
8615,617
8616,596
8617,608
8618,619
8619,601
8620,610
8621,596
8622,599
8623,611
8624,616
8625,605
8626,614
8627,596
8628,607
8629,594
8630,606
8631,612
8632,593
8633,607
8634,616
8635,600
8636,608
8637,593
8638,506
8639,316
8640,146
8641,11
8642,0
8643,0
8644,0
8645,0
8646,0
8647,0
8648,0
8649,0
8650,0
8651,0
8652,0
8653,0
8654,0
8655,0
8656,0
8657,0
8658,0
8659,0
8660,0
8661,0
8662,0
8663,0
8664,0
8665,0
8666,0
8667,0
8668,0
8669,0
8670,0
8671,0
8672,0
8673,0
8674,0
8675,0
8676,83
8677,300
8678,530
8679,619
8680,605
8681,594
8682,607
8683,595
8684,608
8685,598
8686,610
8687,600
8688,611
8689,599
8690,612
8691,602
8692,612
8693,595
8694,606
8695,620
8696,598
8697,611
8698,593
8699,609
8700,620
8701,604
8702,613
8703,595
8704,606
8705,621
8706,599
8707,615
8708,593
8709,605
8710,611
8711,594
8712,597
8713,620
8714,597
8715,610
8716,619
8717,601
8718,614
8719,593
8720,608
8721,616
8722,599
8723,616
8724,594
8725,607
8726,613
8727,600
8728,610
8729,595
8730,605
8731,618
8732,618
8733,599
8734,614
8735,599
8736,607
8737,612
8738,601
8739,615
8740,619
8741,605
8742,612
8743,593
8744,602
8745,617
8746,596
8747,604
8748,619
8749,603
8750,611
8751,595
8752,604
8753,618
8754,593
8755,612
8756,620
8757,608
8758,620
8759,607
8760,615
8761,595
8762,609
8763,593
8764,601
8765,617
8766,595
8767,609
8768,614
8769,604
8770,615
8771,598
8772,607
8773,619
8774,594
8775,603
8776,617
8777,598
8778,606
8779,621
8780,598
8781,616
8782,620
8783,609
8784,617
8785,598
8786,609
8787,594
8788,603
8789,615
8790,560
8791,392
8792,201
8793,34
8794,0
8795,0
8796,0
8797,0
8798,0
8799,0
8800,0
8801,0
8802,0
8803,0
8804,0
8805,0
8806,0
8807,0
8808,0
8809,0
8810,0
8811,0
8812,0
8813,0
8814,0
8815,0
8816,0
8817,0
8818,0
8819,0
8820,0
8821,0
8822,0
8823,0
8824,0
8825,0
8826,0
8827,0
8828,0
8829,0
8830,102
8831,340
8832,619
8833,605
8834,613
8835,602
8836,613
8837,599
8838,605
8839,594
8840,603
8841,610
8842,593
8843,607
8844,619
8845,594
8846,607
8847,601
8848,597
8849,609
8850,619
8851,601
8852,608
8853,596
8854,604
8855,621
8856,600
8857,613
8858,608
8859,600
8860,616
8861,598
8862,607
8863,624
8864,603
8865,620
8866,593
8867,616
8868,595
8869,609
8870,617
8871,600
8872,611
8873,620
8874,598
8875,613
8876,622
8877,602
8878,615
8879,595
8880,606
8881,619
8882,598
8883,610
8884,620
8885,604
8886,613
8887,597
8888,606
8889,620
8890,596
8891,611
8892,617
8893,597
8894,608
8895,622
8896,599
8897,613
8898,621
8899,602
8900,612
8901,593
8902,599
8903,613
8904,533
8905,335
8906,117
8907,0
8908,0
8909,0
8910,0
8911,0
8912,0
8913,0
8914,0
8915,0
8916,0
8917,0
8918,0
8919,0
8920,0
8921,0
8922,0
8923,0
8924,0
8925,0
8926,0
8927,0
8928,0
8929,0
8930,0
8931,0
8932,0
8933,0
8934,0
8935,0
8936,0
8937,0
8938,0
8939,0
8940,0
8941,0
8942,0
8943,0
8944,0
8945,65
8946,209
8947,381
8948,555
8949,595
8950,606
8951,596
8952,610
8953,597
8954,606
8955,598
8956,609
8957,596
8958,607
8959,597
8960,582
8961,565
8962,571
8963,592
8964,599
8965,619
8966,600
8967,616
8968,617
8969,605
8970,618
8971,604
8972,616
8973,600
8974,611
8975,621
8976,609
8977,623
8978,601
8979,617
8980,597
8981,611
8982,618
8983,606
8984,617
8985,601
8986,613
8987,596
8988,608
8989,620
8990,605
8991,622
8992,601
8993,614
8994,604
8995,610
8996,616
8997,605
8998,617
8999,601
9000,609
9001,593
9002,604
9003,610
9004,595
9005,610
9006,621
9007,602
9008,611
9009,594
9010,599
9011,617
9012,594
9013,608
9014,616
9015,600
9016,612
9017,621
9018,606
9019,619
9020,599
9021,614
9022,594
9023,609
9024,613
9025,602
9026,612
9027,595
9028,607
9029,619
9030,601
9031,612
9032,597
9033,612
9034,470
9035,259
9036,56
9037,0
9038,0
9039,0
9040,0
9041,0
9042,0
9043,0
9044,0
9045,0
9046,0
9047,0
9048,0
9049,0
9050,0
9051,0
9052,0
9053,0
9054,0
9055,0
9056,0
9057,0
9058,0
9059,0
9060,0
9061,0
9062,0
9063,0
9064,0
9065,0
9066,0
9067,0
9068,0
9069,0
9070,0
9071,0
9072,0
9073,0
9074,15
9075,179
9076,412
9077,615
9078,602
9079,619
9080,594
9081,615
9082,595
9083,605
9084,620
9085,604
9086,614
9087,600
9088,609
9089,595
9090,598
9091,614
9092,616
9093,607
9094,609
9095,597
9096,609
9097,594
9098,604
9099,622
9100,599
9101,607
9102,608
9103,604
9104,614
9105,597
9106,607
9107,594
9108,599
9109,618
9110,598
9111,610
9112,621
9113,602
9114,614
9115,614
9116,606
9117,622
9118,599
9119,613
9120,621
9121,602
9122,613
9123,595
9124,607
9125,621
9126,600
9127,616
9128,595
9129,611
9130,597
9131,606
9132,614
9133,597
9134,607
9135,594
9136,606
9137,597
9138,599
9139,615
9140,606
9141,606
9142,618
9143,602
9144,612
9145,594
9146,603
9147,618
9148,595
9149,608
9150,617
9151,601
9152,609
9153,593
9154,604
9155,619
9156,596
9157,611
9158,594
9159,606
9160,618
9161,604
9162,614
9163,600
9164,609
9165,594
9166,605
9167,620
9168,599
9169,612
9170,620
9171,604
9172,612
9173,595
9174,467
9175,262
9176,64
9177,0
9178,0
9179,0
9180,0
9181,0
9182,0
9183,0
9184,0
9185,0
9186,0
9187,0
9188,0
9189,0
9190,0
9191,0
9192,0
9193,0
9194,0
9195,0
9196,0
9197,0
9198,0
9199,0
9200,0
9201,0
9202,0
9203,0
9204,0
9205,0
9206,0
9207,0
9208,0
9209,0
9210,0
9211,0
9212,0
9213,0
9214,38
9215,221
9216,450
9217,604
9218,595
9219,612
9220,593
9221,610
9222,594
9223,611
9224,620
9225,612
9226,593
9227,610
9228,597
9229,613
9230,596
9231,609
9232,594
9233,611
9234,594
9235,614
9236,596
9237,614
9238,616
9239,607
9240,619
9241,605
9242,615
9243,600
9244,608
9245,619
9246,602
9247,616
9248,596
9249,613
9250,594
9251,607
9252,611
9253,600
9254,612
9255,624
9256,601
9257,619
9258,600
9259,607
9260,596
9261,606
9262,619
9263,601
9264,611
9265,598
9266,606
9267,594
9268,604
9269,621
9270,600
9271,618
9272,597
9273,608
9274,610
9275,607
9276,617
9277,600
9278,611
9279,596
9280,600
9281,617
9282,595
9283,611
9284,619
9285,603
9286,615
9287,594
9288,612
9289,594
9290,602
9291,618
9292,595
9293,612
9294,617
9295,604
9296,611
9297,593
9298,602
9299,617
9300,595
9301,604
9302,618
9303,601
9304,607
9305,596
9306,601
9307,614
9308,620
9309,611
9310,615
9311,599
9312,612
9313,595
9314,604
9315,612
9316,592
9317,602
9318,463
9319,257
9320,69
9321,0
9322,0
9323,0
9324,0
9325,0
9326,0
9327,0
9328,0
9329,0
9330,0
9331,0
9332,0
9333,0
9334,0
9335,0
9336,0
9337,0
9338,0
9339,0
9340,0
9341,0
9342,0
9343,0
9344,0
9345,0
9346,0
9347,0
9348,0
9349,0
9350,0
9351,0
9352,0
9353,0
9354,0
9355,0
9356,0
9357,35
9358,234
9359,495
9360,597
9361,615
9362,600
9363,615
9364,595
9365,614
9366,596
9367,614
9368,596
9369,612
9370,598
9371,607
9372,618
9373,603
9374,617
9375,600
9376,610
9377,596
9378,606
9379,624
9380,602
9381,619
9382,598
9383,612
9384,596
9385,606
9386,617
9387,602
9388,613
9389,599
9390,613
9391,596
9392,608
9393,595
9394,608
9395,624
9396,602
9397,617
9398,596
9399,613
9400,594
9401,607
9402,615
9403,598
9404,609
9405,594
9406,603
9407,618
9408,598
9409,612
9410,595
9411,613
9412,618
9413,609
9414,621
9415,604
9416,614
9417,598
9418,608
9419,596
9420,607
9421,593
9422,604
9423,619
9424,600
9425,612
9426,624
9427,606
9428,620
9429,601
9430,612
9431,595
9432,605
9433,619
9434,599
9435,611
9436,601
9437,546
9438,357
9439,165
9440,1
9441,0
9442,0
9443,0
9444,0
9445,0
9446,0
9447,0
9448,0
9449,0
9450,0
9451,0
9452,0
9453,0
9454,0
9455,0
9456,0
9457,0
9458,0
9459,0
9460,0
9461,0
9462,0
9463,0
9464,0
9465,0
9466,0
9467,0
9468,0
9469,0
9470,0
9471,0
9472,0
9473,0
9474,0
9475,0
9476,6
9477,173
9478,418
9479,603
9480,615
9481,604
9482,613
9483,596
9484,607
9485,594
9486,605
9487,615
9488,599
9489,618
9490,595
9491,608
9492,618
9493,602
9494,607
9495,597
9496,608
9497,623
9498,602
9499,619
9500,598
9501,611
9502,597
9503,611
9504,601
9505,609
9506,620
9507,606
9508,612
9509,601
9510,612
9511,597
9512,607
9513,599
9514,604
9515,617
9516,602
9517,618
9518,597
9519,612
9520,595
9521,610
9522,617
9523,606
9524,616
9525,600
9526,615
9527,602
9528,615
9529,594
9530,606
9531,605
9532,603
9533,617
9534,595
9535,613
9536,620
9537,605
9538,618
9539,601
9540,613
9541,596
9542,608
9543,619
9544,603
9545,593
9546,598
9547,619
9548,597
9549,612
9550,554
9551,375
9552,179
9553,16
9554,0
9555,0
9556,0
9557,0
9558,0
9559,0
9560,0
9561,0
9562,0
9563,0
9564,0
9565,0
9566,0
9567,0
9568,0
9569,0
9570,0
9571,0
9572,0
9573,0
9574,0
9575,0
9576,0
9577,0
9578,0
9579,0
9580,0
9581,0
9582,0
9583,0
9584,0
9585,0
9586,0
9587,0
9588,0
9589,14
9590,194
9591,449
9592,602
9593,595
9594,608
9595,595
9596,606
9597,614
9598,602
9599,615
9600,602
9601,599
9602,604
9603,593
9604,602
9605,624
9606,603
9607,619
9608,598
9609,615
9610,597
9611,616
9612,598
9613,612
9614,594
9615,609
9616,620
9617,607
9618,618
9619,603
9620,617
9621,602
9622,615
9623,599
9624,609
9625,623
9626,604
9627,622
9628,601
9629,618
9630,601
9631,620
9632,601
9633,618
9634,595
9635,611
9636,622
9637,606
9638,619
9639,607
9640,619
9641,601
9642,620
9643,607
9644,616
9645,600
9646,614
9647,600
9648,610
9649,596
9650,605
9651,594
9652,606
9653,603
9654,607
9655,594
9656,605
9657,619
9658,605
9659,597
9660,606
9661,596
9662,608
9663,595
9664,608
9665,593
9666,609
9667,595
9668,608
9669,595
9670,496
9671,293
9672,102
9673,0
9674,0
9675,0
9676,0
9677,0
9678,0
9679,0
9680,0
9681,0
9682,0
9683,0
9684,0
9685,0
9686,0
9687,0
9688,0
9689,0
9690,0
9691,0
9692,0
9693,0
9694,0
9695,0
9696,0
9697,0
9698,0
9699,0
9700,0
9701,0
9702,0
9703,0
9704,0
9705,0
9706,0
9707,0
9708,0
9709,45
9710,255
9711,529
9712,606
9713,594
9714,606
9715,620
9716,605
9717,620
9718,599
9719,614
9720,597
9721,614
9722,606
9723,613
9724,595
9725,612
9726,612
9727,605
9728,617
9729,597
9730,614
9731,599
9732,612
9733,595
9734,610
9735,595
9736,599
9737,603
9738,602
9739,618
9740,598
9741,613
9742,593
9743,606
9744,596
9745,609
9746,619
9747,600
9748,610
9749,602
9750,599
9751,615
9752,594
9753,607
9754,618
9755,600
9756,608
9757,621
9758,604
9759,615
9760,595
9761,607
9762,617
9763,602
9764,607
9765,594
9766,604
9767,620
9768,597
9769,610
9770,620
9771,600
9772,612
9773,596
9774,607
9775,620
9776,597
9777,612
9778,617
9779,603
9780,618
9781,601
9782,612
9783,597
9784,610
9785,618
9786,603
9787,594
9788,468
9789,273
9790,90
9791,0
9792,0
9793,0
9794,0
9795,0
9796,0
9797,0
9798,0
9799,0
9800,0
9801,0
9802,0
9803,0
9804,0
9805,0
9806,0
9807,0
9808,0
9809,0
9810,0
9811,0
9812,0
9813,0
9814,0
9815,0
9816,0
9817,0
9818,0
9819,0
9820,0
9821,0
9822,0
9823,0
9824,0
9825,0
9826,0
9827,108
9828,351
9829,599
9830,624
9831,609
9832,622
9833,607
9834,612
9835,602
9836,613
9837,598
9838,609
9839,595
9840,605
9841,618
9842,603
9843,617
9844,593
9845,606
9846,615
9847,597
9848,607
9849,615
9850,600
9851,616
9852,596
9853,610
9854,618
9855,600
9856,608
9857,621
9858,600
9859,613
9860,620
9861,605
9862,611
9863,596
9864,604
9865,620
9866,598
9867,610
9868,620
9869,603
9870,612
9871,594
9872,600
9873,614
9874,624
9875,603
9876,612
9877,621
9878,597
9879,611
9880,620
9881,602
9882,610
9883,619
9884,600
9885,615
9886,594
9887,607
9888,615
9889,599
9890,613
9891,597
9892,610
9893,595
9894,604
9895,616
9896,614
9897,605
9898,612
9899,595
9900,604
9901,577
9902,401
9903,207
9904,38
9905,0
9906,0
9907,0
9908,0
9909,0
9910,0
9911,0
9912,0
9913,0
9914,0
9915,0
9916,0
9917,0
9918,0
9919,0
9920,0
9921,0
9922,0
9923,0
9924,0
9925,0
9926,0
9927,0
9928,0
9929,0
9930,0
9931,0
9932,0
9933,0
9934,0
9935,0
9936,0
9937,0
9938,0
9939,0
9940,17
9941,207
9942,470
9943,597
9944,614
9945,600
9946,613
9947,599
9948,611
9949,596
9950,600
9951,618
9952,603
9953,618
9954,596
9955,611
9956,619
9957,604
9958,620
9959,602
9960,611
9961,597
9962,607
9963,624
9964,596
9965,620
9966,600
9967,617
9968,596
9969,616
9970,596
9971,609
9972,596
9973,614
9974,594
9975,609
9976,621
9977,607
9978,614
9979,604
9980,618
9981,604
9982,616
9983,601
9984,610
9985,612
9986,608
9987,594
9988,609
9989,596
9990,609
9991,593
9992,601
9993,620
9994,602
9995,618
9996,600
9997,615
9998,594
9999,608
10000,593
10001,610
10002,616
10003,607
10004,616
10005,599
10006,605
10007,599
10008,611
10009,596
10010,607
10011,533
10012,348
10013,157
10014,0
10015,0
10016,0
10017,0
10018,0
10019,0
10020,0
10021,0
10022,0
10023,0
10024,0
10025,0
10026,0
10027,0
10028,0
10029,0
10030,0
10031,0
10032,0
10033,0
10034,0
10035,0
10036,0
10037,0
10038,0
10039,0
10040,0
10041,0
10042,0
10043,0
10044,0
10045,0
10046,0
10047,0
10048,0
10049,0
10050,48
10051,265
10052,523
10053,596
10054,609
10055,620
10056,607
10057,619
10058,596
10059,617
10060,598
10061,613
10062,620
10063,609
10064,620
10065,605
10066,613
10067,598
10068,610
10069,619
10070,601
10071,617
10072,594
10073,610
10074,620
10075,603
10076,609
10077,600
10078,609
10079,621
10080,601
10081,617
10082,595
10083,602
10084,617
10085,599
10086,607
10087,620
10088,598
10089,614
10090,595
10091,606
10092,615
10093,599
10094,607
10095,622
10096,597
10097,611
10098,620
10099,604
10100,613
10101,597
10102,605
10103,621
10104,595
10105,609
10106,615
10107,598
10108,604
10109,618
10110,593
10111,608
10112,618
10113,601
10114,608
10115,621
10116,598
10117,611
10118,621
10119,606
10120,613
10121,595
10122,602
10123,616
10124,594
10125,607
10126,617
10127,543
10128,357
10129,166
10130,8
10131,0
10132,0
10133,0
10134,0
10135,0
10136,0
10137,0
10138,0
10139,0
10140,0
10141,0
10142,0
10143,0
10144,0
10145,0
10146,0
10147,0
10148,0
10149,0
10150,0
10151,0
10152,0
10153,0
10154,0
10155,0
10156,0
10157,0
10158,0
10159,0
10160,0
10161,0
10162,0
10163,0
10164,0
10165,0
10166,36
10167,236
10168,504
10169,602
10170,613
10171,595
10172,608
10173,596
10174,604
10175,620
10176,602
10177,617
10178,594
10179,614
10180,594
10181,607
10182,616
10183,598
10184,607
10185,617
10186,602
10187,617
10188,596
10189,613
10190,595
10191,606
10192,613
10193,600
10194,612
10195,597
10196,607
10197,623
10198,599
10199,609
10200,598
10201,605
10202,613
10203,596
10204,605
10205,618
10206,593
10207,611
10208,620
10209,604
10210,612
10211,596
10212,602
10213,612
10214,599
10215,615
10216,613
10217,604
10218,615
10219,600
10220,603
10221,621
10222,598
10223,614
10224,595
10225,610
10226,617
10227,601
10228,618
10229,600
10230,611
10231,595
10232,607
10233,593
10234,599
10235,620
10236,600
10237,614
10238,593
10239,610
10240,619
10241,582
10242,423
10243,231
10244,63
10245,0
10246,0
10247,0
10248,0
10249,0
10250,0
10251,0
10252,0
10253,0
10254,0
10255,0
10256,0
10257,0
10258,0
10259,0
10260,0
10261,0
10262,0
10263,0
10264,0
10265,0
10266,0
10267,0
10268,0
10269,0
10270,0
10271,0
10272,0
10273,0
10274,0
10275,0
10276,0
10277,0
10278,0
10279,0
10280,6
10281,172
10282,414
10283,602
10284,611
10285,609
10286,620
10287,611
10288,592
10289,609
10290,618
10291,608
10292,594
10293,602
10294,621
10295,607
10296,620
10297,599
10298,617
10299,600
10300,608
10301,593
10302,603
10303,620
10304,594
10305,615
10306,597
10307,608
10308,620
10309,606
10310,616
10311,597
10312,612
10313,594
10314,603
10315,620
10316,603
10317,618
10318,623
10319,607
10320,618
10321,600
10322,610
10323,594
10324,600
10325,612
10326,598
10327,613
10328,595
10329,607
10330,619
10331,602
10332,615
10333,599
10334,609
10335,594
10336,602
10337,617
10338,595
10339,609
10340,620
10341,602
10342,612
10343,594
10344,605
10345,614
10346,603
10347,620
10348,597
10349,613
10350,594
10351,610
10352,620
10353,602
10354,615
10355,597
10356,605
10357,618
10358,595
10359,609
10360,568
10361,394
10362,198
10363,34
10364,0
10365,0
10366,0
10367,0
10368,0
10369,0
10370,0
10371,0
10372,0
10373,0
10374,0
10375,0
10376,0
10377,0
10378,0
10379,0
10380,0
10381,0
10382,0
10383,0
10384,0
10385,0
10386,0
10387,0
10388,0
10389,0
10390,0
10391,0
10392,0
10393,0
10394,0
10395,0
10396,0
10397,0
10398,0
10399,0
10400,152
10401,402
10402,615
10403,604
10404,617
10405,607
10406,613
10407,604
10408,614
10409,602
10410,613
10411,601
10412,614
10413,594
10414,608
10415,614
10416,602
10417,618
10418,599
10419,613
10420,620
10421,609
10422,621
10423,604
10424,613
10425,600
10426,613
10427,624
10428,606
10429,600
10430,598
10431,609
10432,619
10433,600
10434,603
10435,593
10436,602
10437,618
10438,595
10439,608
10440,619
10441,598
10442,613
10443,596
10444,604
10445,620
10446,597
10447,609
10448,611
10449,600
10450,608
10451,619
10452,599
10453,611
10454,622
10455,597
10456,614
10457,600
10458,611
10459,593
10460,603
10461,619
10462,594
10463,617
10464,596
10465,609
10466,622
10467,604
10468,616
10469,597
10470,613
10471,596
10472,607
10473,624
10474,600
10475,619
10476,594
10477,613
10478,610
10479,604
10480,542
10481,361
10482,171
10483,11
10484,0
10485,0
10486,0
10487,0
10488,0
10489,0
10490,0
10491,0
10492,0
10493,0
10494,0
10495,0
10496,0
10497,0
10498,0
10499,0
10500,0
10501,0
10502,0
10503,0
10504,0
10505,0
10506,0
10507,0
10508,0
10509,0
10510,0
10511,0
10512,0
10513,0
10514,0
10515,0
10516,0
10517,0
10518,0
10519,8
10520,185
10521,439
10522,612
10523,600
10524,613
10525,594
10526,611
10527,598
10528,602
10529,603
10530,602
10531,620
10532,596
10533,620
10534,599
10535,610
10536,596
10537,612
10538,595
10539,601
10540,615
10541,597
10542,604
10543,621
10544,600
10545,612
10546,617
10547,605
10548,614
10549,596
10550,605
10551,620
10552,599
10553,607
10554,593
10555,607
10556,615
10557,596
10558,606
10559,619
10560,599
10561,610
10562,619
10563,603
10564,612
10565,594
10566,605
10567,611
10568,594
10569,608
10570,616
10571,600
10572,611
10573,596
10574,606
10575,622
10576,601
10577,614
10578,621
10579,602
10580,610
10581,594
10582,602
10583,614
10584,594
10585,608
10586,617
10587,599
10588,608
10589,594
10590,603
10591,616
10592,595
10593,609
10594,617
10595,596
10596,607
10597,622
10598,598
10599,610
10600,567
10601,397
10602,205
10603,42
10604,0
10605,0
10606,0
10607,0
10608,0
10609,0
10610,0
10611,0
10612,0
10613,0
10614,0
10615,0
10616,0
10617,0
10618,0
10619,0
10620,0
10621,0
10622,0
10623,0
10624,0
10625,0
10626,0
10627,0
10628,0
10629,0
10630,0
10631,0
10632,0
10633,0
10634,0
10635,0
10636,0
10637,0
10638,0
10639,0
10640,150
10641,388
10642,604
10643,597
10644,608
10645,593
10646,604
10647,620
10648,593
10649,613
10650,595
10651,610
10652,594
10653,609
10654,616
10655,596
10656,609
10657,593
10658,607
10659,624
10660,600
10661,617
10662,619
10663,606
10664,616
10665,599
10666,608
10667,624
10668,601
10669,610
10670,595
10671,607
10672,618
10673,601
10674,613
10675,598
10676,603
10677,623
10678,598
10679,614
10680,604
10681,606
10682,614
10683,593
10684,607
10685,621
10686,602
10687,618
10688,596
10689,612
10690,619
10691,609
10692,621
10693,606
10694,616
10695,599
10696,609
10697,618
10698,603
10699,616
10700,594
10701,609
10702,618
10703,603
10704,610
10705,599
10706,610
10707,595
10708,607
10709,594
10710,604
10711,616
10712,603
10713,621
10714,604
10715,616
10716,600
10717,616
10718,620
10719,608
10720,623
10721,607
10722,615
10723,519
10724,321
10725,137
10726,0
10727,0
10728,0
10729,0
10730,0
10731,0
10732,0
10733,0
10734,0
10735,0
10736,0
10737,0
10738,0
10739,0
10740,0
10741,0
10742,0
10743,0
10744,0
10745,0
10746,0
10747,0
10748,0
10749,0
10750,0
10751,0
10752,0
10753,0
10754,0
10755,0
10756,0
10757,0
10758,0
10759,0
10760,0
10761,0
10762,73
10763,293
10764,534
10765,610
10766,600
10767,602
10768,597
10769,609
10770,619
10771,612
10772,595
10773,614
10774,594
10775,620
10776,602
10777,618
10778,606
10779,595
10780,606
10781,615
10782,600
10783,615
10784,621
10785,609
10786,623
10787,603
10788,611
10789,604
10790,616
10791,600
10792,611
10793,594
10794,606
10795,618
10796,604
10797,620
10798,597
10799,613
10800,595
10801,611
10802,617
10803,609
10804,620
10805,608
10806,619
10807,597
10808,612
10809,595
10810,614
10811,599
10812,609
10813,596
10814,607
10815,593
10816,603
10817,620
10818,598
10819,614
10820,595
10821,612
10822,593
10823,605
10824,619
10825,599
10826,609
10827,593
10828,601
10829,618
10830,596
10831,613
10832,594
10833,610
10834,621
10835,605
10836,615
10837,600
10838,610
10839,614
10840,601
10841,618
10842,598
10843,613
10844,594
10845,596
10846,428
10847,238
10848,65
10849,0
10850,0
10851,0
10852,0
10853,0
10854,0
10855,0
10856,0
10857,0
10858,0
10859,0
10860,0
10861,0
10862,0
10863,0
10864,0
10865,0
10866,0
10867,0
10868,0
10869,0
10870,0
10871,0
10872,0
10873,0
10874,0
10875,0
10876,0
10877,0
10878,0
10879,0
10880,0
10881,0
10882,0
10883,0
10884,0
10885,137
10886,371
10887,599
10888,597
10889,610
10890,619
10891,610
10892,593
10893,609
10894,593
10895,609
10896,618
10897,603
10898,607
10899,607
10900,617
10901,602
10902,613
10903,598
10904,603
10905,594
10906,605
10907,593
10908,604
10909,598
10910,604
10911,612
10912,597
10913,613
10914,622
10915,600
10916,618
10917,600
10918,606
10919,597
10920,609
10921,593
10922,604
10923,623
10924,603
10925,616
10926,602
10927,619
10928,599
10929,614
10930,608
10931,608
10932,616
10933,606
10934,616
10935,598
10936,610
10937,596
10938,607
10939,620
10940,603
10941,617
10942,595
10943,613
10944,621
10945,607
10946,614
10947,604
10948,615
10949,599
10950,610
10951,596
10952,604
10953,618
10954,600
10955,619
10956,600
10957,619
10958,602
10959,618
10960,594
10961,614
10962,594
10963,613
10964,593
10965,613
10966,593
10967,604
10968,621
10969,605
10970,618
10971,603
10972,518
10973,336
10974,155
10975,8
10976,0
10977,0
10978,0
10979,0
10980,0
10981,0
10982,0
10983,0
10984,0
10985,0
10986,0
10987,0
10988,0
10989,0
10990,0
10991,0
10992,0
10993,0
10994,0
10995,0
10996,0
10997,0
10998,0
10999,0
11000,0
11001,0
11002,0
11003,0
11004,0
11005,0
11006,0
11007,0
11008,0
11009,0
11010,0
11011,77
11012,302
11013,539
11014,615
11015,607
11016,614
11017,608
11018,614
11019,602
11020,604
11021,611
11022,594
11023,604
11024,600
11025,623
11026,600
11027,617
11028,598
11029,615
11030,594
11031,608
11032,610
11033,606
11034,618
11035,595
11036,615
11037,620
11038,611
11039,596
11040,608
11041,594
11042,604
11043,618
11044,595
11045,618
11046,598
11047,616
11048,600
11049,617
11050,599
11051,609
11052,594
11053,609
11054,621
11055,603
11056,621
11057,605
11058,618
11059,601
11060,612
11061,595
11062,606
11063,622
11064,600
11065,617
11066,595
11067,612
11068,621
11069,604
11070,613
11071,596
11072,606
11073,620
11074,600
11075,618
11076,599
11077,616
11078,600
11079,621
11080,601
11081,617
11082,598
11083,611
11084,595
11085,612
11086,623
11087,607
11088,621
11089,607
11090,619
11091,602
11092,616
11093,601
11094,612
11095,595
11096,603
11097,618
11098,600
11099,617
11100,594
11101,609
11102,622
11103,540
11104,353
11105,173
11106,22
11107,0
11108,0
11109,0
11110,0
11111,0
11112,0
11113,0
11114,0
11115,0
11116,0
11117,0
11118,0
11119,0
11120,0
11121,0
11122,0
11123,0
11124,0
11125,0
11126,0
11127,0
11128,0
11129,0
11130,0
11131,0
11132,0
11133,0
11134,0
11135,0
11136,0
11137,0
11138,0
11139,0
11140,0
11141,0
11142,68
11143,281
11144,517
11145,595
11146,606
11147,600
11148,616
11149,605
11150,618
11151,604
11152,616
11153,596
11154,594
11155,612
11156,598
11157,610
11158,599
11159,617
11160,596
11161,619
11162,602
11163,621
11164,605
11165,594
11166,604
11167,618
11168,604
11169,594
11170,606
11171,593
11172,606
11173,622
11174,596
11175,619
11176,602
11177,594
11178,605
11179,620
11180,604
11181,612
11182,598
11183,615
11184,595
11185,610
11186,622
11187,606
11188,618
11189,605
11190,620
11191,598
11192,613
11193,599
11194,612
11195,596
11196,615
11197,602
11198,619
11199,605
11200,615
11201,601
11202,607
11203,600
11204,610
11205,597
11206,608
11207,622
11208,603
11209,614
11210,600
11211,617
11212,599
11213,616
11214,598
11215,614
11216,621
11217,613
11218,594
11219,608
11220,596
11221,613
11222,593
11223,602
11224,610
11225,606
11226,619
11227,603
11228,612
11229,599
11230,607
11231,598
11232,606
11233,486
11234,304
11235,130
11236,0
11237,0
11238,0
11239,0
11240,0
11241,0
11242,0
11243,0
11244,0
11245,0
11246,0
11247,0
11248,0
11249,0
11250,0
11251,0
11252,0
11253,0
11254,0
11255,0
11256,0
11257,0
11258,0
11259,0
11260,0
11261,0
11262,0
11263,0
11264,0
11265,0
11266,0
11267,0
11268,0
11269,0
11270,0
11271,0
11272,137
11273,366
11274,587
11275,601
11276,614
11277,597
11278,616
11279,597
11280,619
11281,608
11282,594
11283,606
11284,595
11285,612
11286,619
11287,610
11288,593
11289,611
11290,594
11291,605
11292,595
11293,605
11294,622
11295,606
11296,620
11297,599
11298,612
11299,597
11300,607
11301,623
11302,603
11303,617
11304,594
11305,603
11306,618
11307,604
11308,612
11309,597
11310,606
11311,620
11312,600
11313,616
11314,594
11315,610
11316,621
11317,604
11318,617
11319,603
11320,614
11321,598
11322,609
11323,595
11324,606
11325,594
11326,605
11327,620
11328,598
11329,610
11330,597
11331,606
11332,619
11333,598
11334,616
11335,594
11336,612
11337,598
11338,611
11339,593
11340,611
11341,598
11342,610
11343,598
11344,609
11345,595
11346,607
11347,598
11348,604
11349,618
11350,596
11351,616
11352,597
11353,614
11354,597
11355,608
11356,620
11357,599
11358,617
11359,601
11360,577
11361,415
11362,227
11363,64
11364,0
11365,0
11366,0
11367,0
11368,0
11369,0
11370,0
11371,0
11372,0
11373,0
11374,0
11375,0
11376,0
11377,0
11378,0
11379,0
11380,0
11381,0
11382,0
11383,0
11384,0
11385,0
11386,0
11387,0
11388,0
11389,0
11390,0
11391,0
11392,0
11393,0
11394,0
11395,0
11396,0
11397,0
11398,0
11399,18
11400,201
11401,444
11402,605
11403,602
11404,618
11405,605
11406,619
11407,606
11408,593
11409,607
11410,597
11411,619
11412,602
11413,621
11414,603
11415,617
11416,593
11417,616
11418,598
11419,613
11420,596
11421,612
11422,594
11423,606
11424,621
11425,607
11426,618
11427,602
11428,616
11429,599
11430,608
11431,599
11432,613
11433,600
11434,612
11435,599
11436,613
11437,593
11438,608
11439,594
11440,608
11441,621
11442,598
11443,616
11444,619
11445,611
11446,621
11447,607
11448,613
11449,598
11450,607
11451,620
11452,606
11453,620
11454,599
11455,612
11456,622
11457,607
11458,610
11459,598
11460,609
11461,593
11462,604
11463,618
11464,594
11465,601
11466,615
11467,600
11468,611
11469,593
11470,605
11471,607
11472,595
11473,615
11474,594
11475,608
11476,617
11477,602
11478,614
11479,595
11480,611
11481,595
11482,600
11483,618
11484,596
11485,613
11486,616
11487,603
11488,614
11489,553
11490,386
11491,201
11492,46
11493,0
11494,0
11495,0
11496,0
11497,0
11498,0
11499,0
11500,0
11501,0
11502,0
11503,0
11504,0
11505,0
11506,0
11507,0
11508,0
11509,0
11510,0
11511,0
11512,0
11513,0
11514,0
11515,0
11516,0
11517,0
11518,0
11519,0
11520,0
11521,0
11522,0
11523,0
11524,0
11525,0
11526,0
11527,0
11528,41
11529,243
11530,484
11531,598
11532,613
11533,601
11534,614
11535,599
11536,617
11537,603
11538,617
11539,605
11540,622
11541,608
11542,622
11543,606
11544,619
11545,604
11546,616
11547,605
11548,619
11549,605
11550,615
11551,602
11552,613
11553,597
11554,606
11555,621
11556,598
11557,611
11558,621
11559,604
11560,616
11561,599
11562,608
11563,593
11564,603
11565,620
11566,599
11567,612
11568,599
11569,606
11570,617
11571,599
11572,609
11573,618
11574,600
11575,617
11576,597
11577,612
11578,610
11579,606
11580,617
11581,600
11582,611
11583,596
11584,607
11585,594
11586,598
11587,613
11588,594
11589,605
11590,614
11591,596
11592,605
11593,623
11594,600
11595,615
11596,595
11597,611
11598,600
11599,606
11600,619
11601,600
11602,611
11603,596
11604,608
11605,594
11606,605
11607,593
11608,600
11609,614
11610,594
11611,609
11612,602
11613,609
11614,620
11615,602
11616,607
11617,595
11618,607
11619,593
11620,585
11621,427
11622,243
11623,79
11624,0
11625,0
11626,0
11627,0
11628,0
11629,0
11630,0
11631,0
11632,0
11633,0
11634,0
11635,0
11636,0
11637,0
11638,0
11639,0
11640,0
11641,0
11642,0
11643,0
11644,0
11645,0
11646,0
11647,0
11648,0
11649,0
11650,0
11651,0
11652,0
11653,0
11654,0
11655,0
11656,0
11657,0
11658,0
11659,5
11660,171
11661,405
11662,611
11663,606
11664,607
11665,602
11666,619
11667,605
11668,622
11669,608
11670,596
11671,616
11672,597
11673,593
11674,609
11675,597
11676,608
11677,595
11678,608
11679,620
11680,605
11681,608
11682,603
11683,620
11684,601
11685,617
11686,594
11687,617
11688,599
11689,613
11690,594
11691,612
11692,593
11693,604
11694,622
11695,603
11696,611
11697,597
11698,610
11699,595
11700,602
11701,594
11702,604
11703,619
11704,596
11705,614
11706,596
11707,601
11708,616
11709,604
11710,617
11711,602
11712,618
11713,603
11714,612
11715,602
11716,614
11717,601
11718,611
11719,597
11720,607
11721,620
11722,606
11723,595
11724,602
11725,594
11726,604
11727,620
11728,595
11729,617
11730,599
11731,607
11732,623
11733,607
11734,621
11735,602
11736,617
11737,602
11738,608
11739,597
11740,609
11741,595
11742,599
11743,621
11744,602
11745,613
11746,596
11747,611
11748,621
11749,599
11750,611
11751,595
11752,593
11753,463
11754,270
11755,103
11756,0
11757,0
11758,0
11759,0
11760,0
11761,0
11762,0
11763,0
11764,0
11765,0
11766,0
11767,0
11768,0
11769,0
11770,0
11771,0
11772,0
11773,0
11774,0
11775,0
11776,0
11777,0
11778,0
11779,0
11780,0
11781,0
11782,0
11783,0
11784,0
11785,0
11786,0
11787,0
11788,0
11789,0
11790,0
11791,22
11792,205
11793,451
11794,617
11795,609
11796,596
11797,611
11798,594
11799,612
11800,595
11801,612
11802,598
11803,614
11804,599
11805,614
11806,604
11807,593
11808,607
11809,597
11810,608
11811,598
11812,602
11813,619
11814,601
11815,618
11816,596
11817,612
11818,594
11819,611
11820,601
11821,607
11822,621
11823,607
11824,620
11825,605
11826,616
11827,600
11828,610
11829,595
11830,604
11831,622
11832,603
11833,620
11834,602
11835,618
11836,599
11837,615
11838,596
11839,609
11840,614
11841,607
11842,620
11843,604
11844,614
11845,601
11846,616
11847,601
11848,612
11849,595
11850,604
11851,596
11852,606
11853,622
11854,601
11855,620
11856,599
11857,616
11858,618
11859,613
11860,595
11861,613
11862,596
11863,613
11864,595
11865,606
11866,594
11867,612
11868,594
11869,615
11870,596
11871,615
11872,624
11873,615
11874,596
11875,613
11876,593
11877,609
11878,619
11879,598
11880,613
11881,598
11882,609
11883,595
11884,490
11885,300
11886,126
11887,0
11888,0
11889,0
11890,0
11891,0
11892,0
11893,0
11894,0
11895,0
11896,0
11897,0
11898,0
11899,0
11900,0
11901,0
11902,0
11903,0
11904,0
11905,0
11906,0
11907,0
11908,0
11909,0
11910,0
11911,0
11912,0
11913,0
11914,0
11915,0
11916,0
11917,0
11918,0
11919,0
11920,0
11921,0
11922,0
11923,93
11924,328
11925,570
11926,616
11927,606
11928,616
11929,610
11930,593
11931,614
11932,600
11933,595
11934,610
11935,600
11936,598
11937,592
11938,606
11939,599
11940,615
11941,606
11942,613
11943,608
11944,620
11945,605
11946,620
11947,608
11948,624
11949,603
11950,622
11951,607
11952,622
11953,609
11954,620
11955,604
11956,612
11957,599
11958,608
11959,595
11960,602
11961,622
11962,602
11963,612
11964,598
11965,615
11966,617
11967,607
11968,618
11969,602
11970,607
11971,596
11972,607
11973,615
11974,599
11975,614
11976,625
11977,603
11978,618
11979,604
11980,612
11981,603
11982,615
11983,600
11984,607
11985,596
11986,608
11987,617
11988,601
11989,617
11990,597
11991,608
11992,623
11993,604
11994,611
11995,598
11996,613
11997,596
11998,598
11999,617
12000,595
12001,609
12002,620
12003,602
12004,609
12005,616
12006,602
12007,617
12008,596
12009,610
12010,621
12011,603
12012,609
12013,597
12014,603
12015,620
12016,600
12017,617
12018,598
12019,610
12020,596
12021,612
12022,594
12023,610
12024,621
12025,605
12026,617
12027,601
12028,611
12029,593
12030,607
12031,624
12032,603
12033,619
12034,597
12035,614
12036,595
12037,608
12038,586
12039,435
12040,247
12041,78
12042,0
12043,0
12044,0
12045,0
12046,0
12047,0
12048,0
12049,0
12050,0
12051,0
12052,0
12053,0
12054,0
12055,0
12056,0
12057,0
12058,0
12059,0
12060,0
12061,0
12062,0
12063,0
12064,0
12065,0
12066,0
12067,0
12068,0
12069,0
12070,0
12071,0
12072,0
12073,0
12074,0
12075,0
12076,0
12077,142
12078,355
12079,546
12080,603
12081,610
12082,595
12083,614
12084,599
12085,591
12086,602
12087,588
12088,576
12089,561
12090,590
12091,584
12092,595
12093,619
12094,605
12095,593
12096,607
12097,594
12098,607
12099,595
12100,601
12101,621
12102,600
12103,617
12104,597
12105,613
12106,593
12107,604
12108,622
12109,607
12110,617
12111,600
12112,609
12113,593
12114,600
12115,593
12116,602
12117,619
12118,600
12119,616
12120,594
12121,607
12122,621
12123,605
12124,618
12125,604
12126,615
12127,600
12128,608
12129,598
12130,611
12131,596
12132,609
12133,581
12134,370
12135,158
12136,30
12137,0
12138,0
12139,0
12140,0
12141,0
12142,0
12143,0
12144,0
12145,0
12146,0
12147,0
12148,0
12149,0
12150,0
12151,0
12152,0
12153,0
12154,0
12155,0
12156,0
12157,0
12158,0
12159,0
12160,0
12161,0
12162,0
12163,0
12164,0
12165,0
12166,0
12167,0
12168,0
12169,0
12170,0
12171,0
12172,121
12173,361
12174,590
12175,616
12176,600
12177,615
12178,602
12179,608
12180,606
12181,595
12182,607
12183,597
12184,609
12185,599
12186,614
12187,602
12188,616
12189,605
12190,620
12191,605
12192,596
12193,609
12194,593
12195,610
12196,621
12197,605
12198,615
12199,608
12200,622
12201,607
12202,617
12203,600
12204,452
12205,251
12206,101
12207,18
12208,0
12209,0
12210,0
12211,0
12212,0
12213,0
12214,0
12215,0
12216,0
12217,0
12218,0
12219,0
12220,0
12221,0
12222,0
12223,0
12224,0
12225,0
12226,0
12227,0
12228,0
12229,0
12230,0
12231,0
12232,0
12233,0
12234,0
12235,0
12236,0
12237,0
12238,0
12239,0
12240,0
12241,0
12242,0
12243,55
12244,207
12245,395
12246,567
12247,611
12248,600
12249,614
12250,604
12251,620
12252,606
12253,594
12254,600
12255,595
12256,517
12257,278
12258,119
12259,76
12260,144
12261,269
12262,405
12263,518
12264,593
12265,621
12266,605
12267,594
12268,607
12269,594
12270,608
12271,596
12272,608
12273,595
12274,608
12275,594
12276,607
12277,596
12278,609
12279,596
12280,608
12281,594
12282,607
12283,594
12284,606
12285,593
12286,604
12287,624
12288,602
12289,618
12290,599
12291,615
12292,572
12293,393
12294,207
12295,75
12296,0
12297,0
12298,0
12299,0
12300,0
12301,0
12302,0
12303,0
12304,0
12305,0
12306,0
12307,0
12308,0
12309,0
12310,0
12311,0
12312,0
12313,0
12314,0
12315,0
12316,0
12317,0
12318,0
12319,0
12320,0
12321,0
12322,0
12323,0
12324,0
12325,0
12326,0
12327,0
12328,0
12329,0
12330,65
12331,211
12332,370
12333,506
12334,605
12335,602
12336,620
12337,606
12338,619
12339,609
12340,593
12341,611
12342,619
12343,608
12344,621
12345,607
12346,619
12347,606
12348,619
12349,601
12350,619
12351,607
12352,620
12353,606
12354,619
12355,604
12356,612
12357,604
12358,614
12359,602
12360,614
12361,600
12362,614
12363,597
12364,615
12365,600
12366,615
12367,603
12368,616
12369,601
12370,609
12371,599
12372,612
12373,599
12374,614
12375,601
12376,612
12377,593
12378,491
12379,288
12380,131
12381,30
12382,0
12383,0
12384,0
12385,0
12386,0
12387,0
12388,0
12389,0
12390,0
12391,0
12392,0
12393,0
12394,0
12395,0
12396,0
12397,0
12398,0
12399,0
12400,0
12401,0
12402,0
12403,0
12404,0
12405,0
12406,0
12407,0
12408,0
12409,0
12410,0
12411,0
12412,0
12413,0
12414,0
12415,123
12416,312
12417,503
12418,615
12419,604
12420,622
12421,609
12422,597
12423,607
12424,619
12425,605
12426,614
12427,607
12428,617
12429,608
12430,620
12431,606
12432,619
12433,597
12434,614
12435,599
12436,611
12437,598
12438,611
12439,597
12440,606
12441,596
12442,608
12443,595
12444,607
12445,594
12446,612
12447,595
12448,610
12449,599
12450,609
12451,599
12452,614
12453,599
12454,606
12455,600
12456,612
12457,595
12458,613
12459,599
12460,611
12461,593
12462,616
12463,603
12464,612
12465,604
12466,620
12467,606
12468,615
12469,607
12470,621
12471,604
12472,593
12473,612
12474,604
12475,603
12476,620
12477,606
12478,616
12479,605
12480,619
12481,602
12482,608
12483,602
12484,502
12485,324
12486,173
12487,68
12488,5
12489,0
12490,0
12491,0
12492,0
12493,0
12494,0
12495,0
12496,0
12497,0
12498,0
12499,0
12500,0
12501,0
12502,0
12503,0
12504,0
12505,0
12506,0
12507,0
12508,0
12509,0
12510,0
12511,0
12512,0
12513,0
12514,0
12515,0
12516,0
12517,0
12518,0
12519,0
12520,0
12521,12
12522,124
12523,264
12524,389
12525,483
12526,552
12527,596
12528,595
12529,592
12530,607
12531,598
12532,614
12533,607
12534,593
12535,611
12536,593
12537,612
12538,593
12539,611
12540,594
12541,612
12542,599
12543,611
12544,593
12545,610
12546,612
12547,608
12548,601
12549,610
12550,599
12551,612
12552,595
12553,615
12554,598
12555,617
12556,601
12557,624
12558,606
12559,603
12560,606
12561,595
12562,607
12563,624
12564,603
12565,620
12566,599
12567,616
12568,600
12569,617
12570,600
12571,619
12572,602
12573,621
12574,605
12575,595
12576,610
12577,597
12578,612
12579,602
12580,617
12581,603
12582,617
12583,604
12584,613
12585,603
12586,618
12587,603
12588,616
12589,602
12590,619
12591,602
12592,617
12593,608
12594,622
12595,610
12596,594
12597,612
12598,624
12599,613
12600,596
12601,615
12602,534
12603,356
12604,195
12605,87
12606,20
12607,0
12608,0
12609,0
12610,0
12611,0
12612,0
12613,0
12614,0
12615,0
12616,0
12617,0
12618,0
12619,0
12620,0
12621,0
12622,0
12623,0
12624,0
12625,0
12626,0
12627,0
12628,0
12629,0
12630,0
12631,0
12632,0
12633,0
12634,0
12635,0
12636,0
12637,0
12638,0
12639,0
12640,96
12641,235
12642,365
12643,472
12644,542
12645,584
12646,592
12647,613
12648,606
12649,597
12650,609
12651,597
12652,608
12653,595
12654,606
12655,599
12656,611
12657,599
12658,612
12659,597
12660,608
12661,594
12662,614
12663,602
12664,615
12665,606
12666,620
12667,606
12668,614
12669,609
12670,624
12671,606
12672,616
12673,604
12674,620
12675,599
12676,618
12677,605
12678,617
12679,603
12680,613
12681,598
12682,602
12683,596
12684,605
12685,622
12686,602
12687,619
12688,595
12689,605
12690,619
12691,602
12692,607
12693,595
12694,606
12695,622
12696,597
12697,615
12698,594
12699,603
12700,617
12701,598
12702,607
12703,615
12704,595
12705,594
12706,426
12707,250
12708,115
12709,34
12710,0
12711,0
12712,0
12713,0
12714,0
12715,0
12716,0
12717,0
12718,0
12719,0
12720,0
12721,0
12722,0
12723,0
12724,0
12725,0
12726,0
12727,0
12728,0
12729,0
12730,0
12731,0
12732,0
12733,0
12734,0
12735,0
12736,0
12737,0
12738,0
12739,0
12740,0
12741,0
12742,0
12743,78
12744,210
12745,339
12746,448
12747,528
12748,597
12749,614
12750,600
12751,593
12752,607
12753,596
12754,609
12755,598
12756,612
12757,600
12758,612
12759,594
12760,609
12761,620
12762,601
12763,617
12764,596
12765,613
12766,606
12767,605
12768,620
12769,603
12770,618
12771,603
12772,617
12773,602
12774,613
12775,598
12776,611
12777,596
12778,606
12779,623
12780,604
12781,624
12782,604
12783,600
12784,608
12785,595
12786,604
12787,594
12788,605
12789,619
12790,603
12791,617
12792,598
12793,614
12794,595
12795,613
12796,621
12797,607
12798,619
12799,604
12800,614
12801,598
12802,609
12803,596
12804,608
12805,624
12806,601
12807,615
12808,604
12809,609
12810,605
12811,607
12812,618
12813,600
12814,612
12815,593
12816,605
12817,548
12818,368
12819,192
12820,74
12821,11
12822,0
12823,0
12824,0
12825,0
12826,0
12827,0
12828,0
12829,0
12830,0
12831,0
12832,0
12833,0
12834,0
12835,0
12836,0
12837,0
12838,0
12839,0
12840,0
12841,0
12842,0
12843,0
12844,0
12845,0
12846,0
12847,0
12848,0
12849,0
12850,0
12851,0
12852,0
12853,16
12854,121
12855,286
12856,463
12857,605
12858,595
12859,611
12860,593
12861,609
12862,593
12863,610
12864,616
12865,605
12866,618
12867,600
12868,610
12869,599
12870,612
12871,600
12872,612
12873,598
12874,609
12875,621
12876,603
12877,623
12878,602
12879,620
12880,597
12881,611
12882,619
12883,608
12884,620
12885,603
12886,613
12887,597
12888,608
12889,620
12890,607
12891,593
12892,608
12893,596
12894,607
12895,594
12896,603
12897,594
12898,606
12899,593
12900,605
12901,616
12902,601
12903,611
12904,531
12905,356
12906,205
12907,106
12908,53
12909,30
12910,23
12911,24
12912,16
12913,24
12914,26
12915,27
12916,28
12917,27
12918,25
12919,24
12920,21
12921,22
12922,21
12923,22
12924,21
12925,22
12926,18
12927,17
12928,18
12929,18
12930,19
12931,18
12932,20
12933,14
12934,7
12935,7
12936,7
12937,10
12938,73
12939,263
12940,428
12941,593
12942,616
12943,602
12944,616
12945,596
12946,617
12947,605
12948,615
12949,608
12950,621
12951,607
12952,615
12953,605
12954,619
12955,601
12956,618
12957,605
12958,617
12959,598
12960,614
12961,600
12962,607
12963,594
12964,606
12965,594
12966,603
12967,598
12968,612
12969,601
12970,613
12971,598
12972,610
12973,595
12974,611
12975,596
12976,607
12977,618
12978,605
12979,618
12980,621
12981,609
12982,622
12983,603
12984,607
12985,620
12986,599
12987,603
12988,614
12989,595
12990,602
12991,613
12992,621
12993,600
12994,605
12995,618
12996,594
12997,607
12998,615
12999,598
13000,604
13001,619
13002,597
13003,612
13004,622
13005,601
13006,612
13007,595
13008,599
13009,613
13010,621
13011,600
13012,601
13013,457
13014,277
13015,147
13016,72
13017,35
13018,17
13019,15
13020,12
13021,14
13022,15
13023,17
13024,15
13025,13
13026,10
13027,6
13028,5
13029,6
13030,6
13031,7
13032,6
13033,5
13034,3
13035,2
13036,3
13037,4
13038,6
13039,4
13040,2
13041,0
13042,0
13043,0
13044,1
13045,4
13046,4
13047,8
13048,47
13049,137
13050,263
13051,391
13052,513
13053,569
13054,597
13055,594
13056,603
13057,620
13058,599
13059,616
13060,598
13061,613
13062,594
13063,609
13064,621
13065,606
13066,618
13067,604
13068,610
13069,598
13070,611
13071,594
13072,605
13073,608
13074,599
13075,607
13076,620
13077,603
13078,612
13079,594
13080,603
13081,618
13082,616
13083,612
13084,613
13085,606
13086,615
13087,600
13088,612
13089,624
13090,604
13091,618
13092,599
13093,615
13094,594
13095,609
13096,613
13097,602
13098,611
13099,593
13100,601
13101,616
13102,593
13103,601
13104,618
13105,601
13106,612
13107,597
13108,609
13109,593
13110,595
13111,613
13112,596
13113,612
13114,600
13115,607
13116,620
13117,596
13118,611
13119,596
13120,606
13121,623
13122,599
13123,612
13124,511
13125,328
13126,178
13127,90
13128,50
13129,39
13130,41
13131,44
13132,46
13133,44
13134,42
13135,39
13136,39
13137,41
13138,38
13139,37
13140,36
13141,34
13142,31
13143,30
13144,32
13145,32
13146,32
13147,33
13148,35
13149,32
13150,33
13151,31
13152,32
13153,34
13154,30
13155,28
13156,25
13157,25
13158,25
13159,34
13160,82
13161,175
13162,285
13163,392
13164,487
13165,576
13166,593
13167,615
13168,595
13169,610
13170,622
13171,598
13172,609
13173,618
13174,601
13175,617
13176,620
13177,607
13178,614
13179,594
13180,596
13181,613
13182,621
13183,594
13184,606
13185,618
13186,595
13187,600
13188,612
13189,593
13190,595
13191,614
13192,619
13193,600
13194,599
13195,616
13196,597
13197,595
13198,607
13199,619
13200,603
13201,597
13202,606
13203,615
13204,612
13205,621
13206,597
13207,607
13208,604
13209,616
13210,620
13211,599
13212,604
13213,612
13214,618
13215,596
13216,539
13217,352
13218,196
13219,105
13220,64
13221,48
13222,47
13223,49
13224,53
13225,53
13226,48
13227,48
13228,41
13229,40
13230,39
13231,38
13232,40
13233,36
13234,34
13235,30
13236,30
13237,29
13238,29
13239,30
13240,27
13241,25
13242,24
13243,22
13244,23
13245,23
13246,25
13247,24
13248,24
13249,22
13250,19
13251,21
13252,44
13253,111
13254,210
13255,317
13256,423
13257,530
13258,591
13259,599
13260,600
13261,604
13262,601
13263,605
13264,606
13265,608
13266,607
13267,609
13268,607
13269,608
13270,606
13271,608
13272,607
13273,608
13274,606
13275,610
13276,608
13277,612
13278,609
13279,612
13280,612
13281,616
13282,616
13283,611
13284,597
13285,597
13286,599
13287,603
13288,604
13289,608
13290,604
13291,610
13292,609
13293,614
13294,613
13295,620
13296,620
13297,594
13298,594
13299,597
13300,598
13301,602
13302,602
13303,609
13304,612
13305,617
13306,618
13307,594
13308,596
13309,594
13310,618
13311,598
13312,598
13313,603
13314,605
13315,573
13316,373
13317,215
13318,115
13319,62
13320,38
13321,29
13322,25
13323,26
13324,27
13325,27
13326,26
13327,23
13328,19
13329,18
13330,15
13331,15
13332,15
13333,14
13334,14
13335,11
13336,7
13337,9
13338,7
13339,8
13340,10
13341,7
13342,6
13343,3
13344,1
13345,0
13346,0
13347,0
13348,0
13349,0
13350,0
13351,11
13352,77
13353,177
13354,287
13355,389
13356,468
13357,538
13358,589
13359,611
13360,618
13361,595
13362,593
13363,600
13364,601
13365,608
13366,605
13367,613
13368,613
13369,617
13370,620
13371,595
13372,596
13373,597
13374,603
13375,609
13376,609
13377,616
13378,617
13379,595
13380,593
13381,609
13382,611
13383,618
13384,620
13385,594
13386,596
13387,598
13388,603
13389,610
13390,610
13391,612
13392,608
13393,613
13394,609
13395,622
13396,594
13397,594
13398,595
13399,598
13400,599
13401,601
13402,605
13403,611
13404,611
13405,617
13406,617
13407,614
13408,619
13409,599
13410,596
13411,602
13412,601
13413,606
13414,603
13415,600
13416,606
13417,611
13418,608
13419,575
13420,396
13421,225
13422,108
13423,46
13424,19
13425,9
13426,7
13427,4
13428,3
13429,0
13430,0
13431,0
13432,0
13433,0
13434,0
13435,0
13436,0
13437,0
13438,0
13439,0
13440,2
13441,2
13442,1
13443,0
13444,0
13445,0
13446,0
13447,0
13448,0
13449,0
13450,0
13451,0
13452,0
13453,0
13454,0
13455,0
13456,23
13457,92
13458,191
13459,304
13460,406
13461,495
13462,551
13463,591
13464,596
13465,609
13466,614
13467,620
13468,618
13469,596
13470,596
13471,594
13472,599
13473,604
13474,602
13475,608
13476,608
13477,611
13478,611
13479,614
13480,616
13481,619
13482,621
13483,595
13484,593
13485,599
13486,599
13487,607
13488,608
13489,612
13490,611
13491,621
13492,621
13493,620
13494,606
13495,596
13496,594
13497,597
13498,594
13499,596
13500,596
13501,601
13502,599
13503,604
13504,604
13505,606
13506,605
13507,609
13508,608
13509,615
13510,613
13511,613
13512,611
13513,617
13514,615
13515,619
13516,617
13517,620
13518,617
13519,620
13520,619
13521,619
13522,617
13523,617
13524,619
13525,624
13526,594
13527,598
13528,596
13529,601
13530,600
13531,605
13532,600
13533,606
13534,603
13535,605
13536,456
13537,265
13538,139
13539,61
13540,21
13541,2
13542,0
13543,0
13544,0
13545,0
13546,0
13547,0
13548,0
13549,0
13550,0
13551,0
13552,0
13553,0
13554,0
13555,0
13556,0
13557,0
13558,0
13559,0
13560,0
13561,0
13562,0
13563,0
13564,0
13565,0
13566,0
13567,0
13568,0
13569,0
13570,0
13571,0
13572,0
13573,20
13574,124
13575,260
13576,384
13577,497
13578,553
13579,592
13580,597
13581,610
13582,616
13583,593
13584,595
13585,601
13586,599
13587,601
13588,605
13589,610
13590,609
13591,615
13592,614
13593,616
13594,610
13595,619
13596,618
13597,621
13598,620
13599,593
13600,594
13601,619
13602,593
13603,594
13604,593
13605,596
13606,594
13607,596
13608,621
13609,595
13610,606
13611,595
13612,621
13613,594
13614,620
13615,617
13616,620
13617,615
13618,606
13619,594
13620,594
13621,598
13622,593
13623,601
13624,602
13625,607
13626,605
13627,611
13628,613
13629,612
13630,618
13631,614
13632,609
13633,595
13634,595
13635,602
13636,599
13637,609
13638,610
13639,616
13640,618
13641,595
13642,598
13643,602
13644,615
13645,597
13646,606
13647,614
13648,619
13649,594
13650,594
13651,605
13652,612
13653,620
13654,553
13655,380
13656,219
13657,106
13658,40
13659,1
13660,0
13661,0
13662,0
13663,0
13664,0
13665,0
13666,0
13667,0
13668,0
13669,0
13670,0
13671,0
13672,0
13673,0
13674,0
13675,0
13676,0
13677,0
13678,0
13679,0
13680,0
13681,0
13682,0
13683,0
13684,0
13685,0
13686,0
13687,0
13688,0
13689,0
13690,0
13691,0
13692,40
13693,157
13694,288
13695,400
13696,495
13697,578
13698,602
13699,620
13700,599
13701,611
13702,619
13703,600
13704,608
13705,620
13706,621
13707,606
13708,613
13709,596
13710,594
13711,603
13712,611
13713,619
13714,598
13715,607
13716,611
13717,621
13718,594
13719,600
13720,605
13721,615
13722,621
13723,596
13724,601
13725,611
13726,616
13727,593
13728,596
13729,607
13730,612
13731,618
13732,602
13733,602
13734,608
13735,620
13736,594
13737,602
13738,606
13739,615
13740,622
13741,602
13742,609
13743,617
13744,620
13745,598
13746,601
13747,612
13748,616
13749,595
13750,599
13751,609
13752,613
13753,612
13754,597
13755,605
13756,609
13757,618
13758,593
13759,600
13760,604
13761,615
13762,623
13763,601
13764,604
13765,618
13766,593
13767,602
13768,607
13769,617
13770,620
13771,599
13772,603
13773,610
13774,442
13775,271
13776,139
13777,60
13778,15
13779,0
13780,0
13781,0
13782,0
13783,0
13784,0
13785,0
13786,0
13787,0
13788,0
13789,0
13790,0
13791,0
13792,0
13793,0
13794,0
13795,0
13796,0
13797,0
13798,0
13799,0
13800,0
13801,0
13802,0
13803,0
13804,0
13805,0
13806,0
13807,0
13808,0
13809,0
13810,0
13811,36
13812,146
13813,272
13814,384
13815,485
13816,542
13817,592
13818,606
13819,611
13820,598
13821,613
13822,612
13823,599
13824,604
13825,613
13826,618
13827,594
13828,597
13829,603
13830,613
13831,594
13832,600
13833,611
13834,614
13835,604
13836,624
13837,608
13838,611
13839,597
13840,600
13841,610
13842,616
13843,593
13844,602
13845,613
13846,621
13847,599
13848,604
13849,614
13850,612
13851,596
13852,598
13853,607
13854,610
13855,621
13856,596
13857,605
13858,619
13859,600
13860,605
13861,615
13862,602
13863,601
13864,598
13865,612
13866,614
13867,593
13868,597
13869,606
13870,612
13871,618
13872,599
13873,611
13874,614
13875,593
13876,599
