ecg_value
-1.2291852
-1.6068217
-2.0800874
-2.687226
-3.3929248
-4.100045
-4.701689
-5.113948
-5.3116074
-5.3316813
-5.2416916
-5.116622
-5.011653
-4.9569645
-4.9505196
-4.9696364
-4.9922223
-4.9993467
-4.985089
-4.954296
-4.920702
-4.895747
-4.8805623
-4.8731666
-4.8649635
-4.846623
-4.8126063
-4.765564
-4.7160134
-4.676306
-4.663656
-4.6900716
-4.7517486
-4.820832
-4.8423862
-4.7436414
-4.4522457
-3.9322314
-3.2089698
-2.3707247
-1.5456457
-0.85841966
-0.38978565
-0.15190332
-0.09777807
-0.15004149
-0.23115492
-0.2884231
-0.30217758
-0.28067908
-0.24338295
-0.20771308
-0.18330653
-0.16937535
-0.15980242
-0.14890808
-0.1356565
-0.12195403
-0.10972055
-0.10068208
-0.09406303
-0.08745109
-0.07888353
-0.06863404
-0.058214236
-0.04797573
-0.037854157
-0.026727993
-0.013049883
0.0034301225
0.0208015
0.0360987
0.04818054
0.057640523
0.06668049
0.07841353
0.09478798
0.11533302
0.13753317
0.15938686
0.18006657
0.1997777
0.21953224
0.2396083
0.25864962
0.27418756
0.2851708
0.29309213
0.30112165
0.31261003
0.3282895
0.34439418
0.35347965
0.34898967
0.33068973
0.30774483
0.29822662
0.322363
0.39053616
0.49030727
0.5791163
0.58804625
0.43880793
0.07232081
-0.5219902
-1.2909844
-2.1271415
-2.9011717
-3.5041304
-3.8805006
-4.0376773
-4.031309
-3.9375489
-3.8257575
-3.7410622
-3.6995518
-3.694315
-3.7066119
-3.7168999
-3.7127953
-3.692268
-3.6620202
-3.632442
-3.612101
-3.6037824
-3.6030715
-3.6002643
-3.5847926
-3.550363
-3.4988105
-3.4416077
-3.3980196
-3.3888865
-3.4267688
-3.5046911
-3.5875912
-3.61199
-3.4988995
-3.1801338
-2.6296527
-1.8852346
-1.0463003
-0.24428716
0.4023192
0.8265582
1.0276005
1.0584738
0.9971208
0.91591275
0.86155486
0.8498901
0.87300545
0.9120422
0.9492802
0.9752447
0.9895455
0.9971895
1.0036856
1.0118724
1.0214896
1.0308503
1.0389578
1.0463797
1.0544921
1.0640465
1.0743665
1.083707
1.0904542
1.094343
1.096724
1.0996464
1.1044713
1.1110743
1.1181436
1.1242919
1.1292522
1.1342515
1.1412264
1.1514556
1.1646283
1.1789765
1.1923158
1.20332
1.2121643
1.220101
1.2283831
1.237449
1.2469956
1.2567749
1.2673742
1.2800695
1.2954079
1.3113317
1.3224851
1.3220549
1.3060542
1.2781935
1.2522503
1.2489849
1.2866747
1.3676047
1.4660474
1.524782
1.4657487
1.2152473
0.73614115
0.05267874
-0.7468037
-1.5348095
-2.187792
-2.6271536
-2.8392322
-2.867947
-2.7881503
-2.6748397
-2.5811152
-2.5302503
-2.520012
-2.5334823
-2.5504801
-2.5557737
-2.5428426
-2.513766
-2.4765172
-2.4409761
-2.4148536
-2.4006846
-2.3948474
-2.3890216
-2.3737419
-2.3429704
-2.2981207
-2.2498019
-2.2158504
-2.2149844
-2.2567868
-2.3306892
-2.3986998
-2.397495
-2.2536967
-1.9107323
-1.3579246
-0.64679104
0.11788056
0.8120237
1.3358881
1.6456412
1.7593129
1.7385467
1.6587948
1.5824066
1.5437303
1.5480554
1.5807132
1.6201637
1.649212
1.6607517
1.6574568
1.6473749
1.6385345
1.6352998
1.6377063
1.6432517
1.6494632
1.655534
1.6622517
1.6706736
1.680768
1.6910983
1.6997505
1.7057489
1.7098502
1.7140754
1.7202795
1.7287867
1.7381014
1.7459115
1.7506775
1.7526863
1.7538412
1.7563303
1.7610837
1.7670587
1.7718166
1.7729827
1.7696229
1.7626704
1.7542129
1.7462417
1.7398084
1.7351863
1.7328043
1.7340146
1.7407254
1.7537235
1.7706612
1.7853564
1.7896941
1.7780211
1.7521796
1.7241559
1.7135453
1.7388697
1.8047528
1.889946
1.9427749
1.8894094
1.6558249
1.1974107
0.5240261
-0.29269692
-1.1363318
-1.881598
-2.4338934
-2.755266
-2.8672411
-2.8327425
-2.7281175
-2.6179018
-2.5404406
-2.5060115
-2.5041926
-2.5152168
-2.52049
-2.5092514
-2.4804997
-2.4409587
-2.400734
-2.3685043
-2.3479028
-2.3362024
-2.3256388
-2.3068576
-2.273341
-2.2253563
-2.171946
-2.129642
-2.1170287
-2.1453376
-2.2072039
-2.2681491
-2.2668717
-2.1290717
-1.7940764
-1.245232
-0.5287049
0.25273317
0.9721917
1.5231005
1.853843
1.9772204
1.9541705
1.8635488
1.773134
1.722373
1.7197801
1.7516514
1.7956443
1.8328291
1.8541359
1.8603939
1.8580016
1.853607
1.8506815
1.8490888
1.8468686
1.8424853
1.8360353
1.8289404
1.8227308
1.8179947
1.8142388
1.8106021
1.8067393
1.8031505
1.8007387
1.8000052
1.8005718
1.8014303
1.8017178
1.8013756
1.8011478
1.8018839
1.803681
1.8055661
1.8060374
1.8041112
1.8000952
1.7955076
1.7921888
1.7912471
1.792608
1.7954893
1.7993761
1.8045833
1.8117003
1.820058
1.8262737
1.8242997
1.8078356
1.7746519
1.7309026
1.6926011
1.6817431
1.7163937
1.797122
1.8953182
1.9504786
1.8819169
1.6149358
1.1134981
0.40471002
-0.41955742
-1.2289196
-1.898481
-2.349926
-2.5709312
-2.6069858
-2.534123
-2.4280076
-2.3422072
-2.3006372
-2.3019145
-2.329834
-2.364389
-2.3898468
-2.3986628
-2.3915732
-2.3750203
-2.35738
-2.3454118
-2.3419313
-2.3451245
-2.3494627
-2.347902
-2.3349056
-2.3096254
-2.2782328
-2.2539968
-2.2537131
-2.2899892
-2.3608446
-2.4405434
-2.4772458
-2.402332
-2.1519861
-1.694688
-1.0522076
-0.30162388
0.44589993
1.0814087
1.5329202
1.7833722
1.8660837
1.8433472
1.7801456
1.7241963
1.6978738
1.7012281
1.7213789
1.7428411
1.7548765
1.7543094
1.7443161
1.730987
1.719769
1.713323
1.7112716
1.711327
1.7108133
1.7077537
1.7012383
1.6913112
1.6787652
1.6650164
1.6519511
1.6415496
1.6352795
1.6335144
1.6353313
1.638877
1.6421596
1.6438594
1.6437143
1.6422675
1.6401615
1.637483
1.6336281
1.6277862
1.6196797
1.610003
1.6002073
1.5917612
1.5854418
1.5812298
1.5789309
1.5790294
1.5829526
1.592185
1.6064681
1.6222112
1.632591
1.6302018
1.6116818
1.5821713
1.556621
1.5555209
1.5947188
1.6720824
1.7566613
1.7871964
1.6849252
1.3800813
0.84362483
0.109506674
-0.7264411
-1.5346189
-2.1954672
-2.6382546
-2.8573337
-2.90161
-2.8466449
-2.7646587
-2.7044427
-2.6854436
-2.7033756
-2.7414038
-2.781144
-2.8099794
-2.8237996
-2.8260052
-2.8242924
-2.8266659
-2.8379095
-2.8575082
-2.8796763
-2.8956108
-2.8974376
-2.882706
-2.8577983
-2.8384132
-2.84555
-2.8965132
-2.9925246
-3.1072059
-3.182292
-3.1366034
-2.8900561
-2.396669
-1.6726723
-0.8037515
0.07664783
0.8308774
1.3626968
1.6440235
1.7130269
1.6488326
1.5375401
1.4443942
1.4005868
1.4053074
1.4379672
1.473336
1.4933295
1.492135
1.4747518
1.4515326
1.4321767
1.4219027
1.420826
1.4258217
1.4331586
1.4403088
1.4462672
1.4507899
1.4535161
1.4537505
1.4509864
1.4455994
1.4389999
1.4329646
1.4285314
1.4252437
1.4213678
1.41504
1.405601
1.3942137
1.3833464
1.3754435
1.371612
1.3711628
1.3723292
1.3736688
1.3750991
1.3777649
1.3828671
1.3903873
1.3986799
1.4052726
1.4084681
1.4087292
1.4087032
1.4114156
1.4175016
1.4233696
1.4220029
1.4067291
1.3765373
1.3401592
1.3157566
1.3242226
1.376853
1.4615991
1.5346247
1.5238931
1.348012
0.9467199
0.3115304
-0.49901706
-1.3705316
-2.1684873
-2.782827
-3.1608481
-3.3150232
-3.306225
-3.213975
-3.1081872
-3.0322545
-2.9999354
-3.0026584
-3.0213838
-3.0376298
-3.0404036
-3.0281827
-3.0068612
-2.9854212
-2.9712548
-2.966778
-2.9683836
-2.967985
-2.9565654
-2.92854
-2.8855045
-2.8379807
-2.803915
-2.8030548
-2.8473444
-2.9294071
-3.013654
-3.0361738
-2.9183664
-2.5939257
-2.0404098
-1.2999687
-0.4751193
0.3027876
0.9188604
1.3116804
1.4855071
1.495955
1.4204993
1.329123
1.2659639
1.2452234
1.2583505
1.286437
1.3117621
1.3245447
1.3239377
1.3148633
1.3035487
1.294298
1.2886112
1.2861836
1.2864283
1.2892528
1.2946744
1.3018566
1.3086116
1.3120391
1.3100361
1.3026602
1.2923434
1.2827038
1.2766321
1.2748051
1.2755204
1.275919
1.2737882
1.268813
1.2625426
1.2572043
1.2542293
1.2534882
1.2536788
1.253493
1.2526529
1.2520504
1.2529161
1.25569
1.259512
1.2628198
1.2647288
1.2662055
1.270002
1.2790176
1.2938564
1.3111142
1.3237997
1.3243289
1.3091718
1.2830622
1.2601858
1.2603124
1.2995012
1.3775557
1.4671077
1.5108006
1.4319313
1.1590524
0.65733916
-0.047303617
-0.86585224
-1.6709044
-2.339278
-2.7925766
-3.0171475
-3.0570288
-2.9875546
-2.884463
-2.8013973
-2.7615159
-2.7617743
-2.7843332
-2.808895
-2.8214643
-2.8177166
-2.801617
-2.7813678
-2.7649732
-2.7570314
-2.7574146
-2.7617009
-2.7628806
-2.7538764
-2.7305145
-2.6944396
-2.6550083
-2.628638
-2.634027
-2.682789
-2.7675395
-2.8525164
-2.8735566
-2.7525666
-2.4255323
-1.8743191
-1.1461097
-0.3466972
0.39331558
0.9642511
1.3124725
1.4494377
1.4348191
1.3462859
1.2512407
1.1903847
1.1751832
1.1955171
1.2315339
1.2643503
1.2824819
1.2833786
1.2713343
1.2538569
1.2383436
1.2300313
1.231314
1.2420006
1.2599722
1.2818656
1.3037417
1.3218799
1.333663
1.3382123
1.3364235
1.3303772
1.3224287
1.314394
1.3071388
1.3006533
1.2944694
1.2881677
1.2817395
1.2756561
1.2706263
1.2671772
1.2653269
1.264578
1.2642564
1.2639767
1.263916
1.2646766
1.266798
1.2702432
1.2742474
1.2777239
1.2800685
1.2818972
1.2851558
1.2922858
1.304635
1.3208259
1.3360573
1.3431581
1.3355832
1.311581
1.277794
1.2500178
1.2491639
1.2919235
1.3781552
1.4798809
1.5384625
1.4753681
1.2170113
0.72649
0.028266903
-0.78881395
-1.5960279
-2.2678807
-2.7237558
-2.948809
-2.9870732
-2.9144838
-2.8073397
-2.7197337
-2.675624
-2.6734254
-2.6969812
-2.7268045
-2.7479024
-2.7531834
-2.7432506
-2.7240264
-2.7035422
-2.6888444
-2.6835735
-2.6865983
-2.6921053
-2.6915073
-2.6771307
-2.646813
-2.6075718
-2.5759242
-2.5728555
-2.6132634
-2.6926708
-2.7769735
-2.8022573
-2.6895466
-2.373112
-1.8324094
-1.1117324
-0.31411523
0.43149674
1.0152212
1.3814342
1.53874
1.5441371
1.4732722
1.3920395
1.3399392
1.3277138
1.3454661
1.3748143
1.3994128
1.410768
1.4089582
1.3996567
1.3896897
1.3833902
1.3812335
1.3808744
1.3794549
1.3756226
1.370212
1.3654934
1.3637048
1.3658445
1.3713733
1.3788207
1.3867211
1.3942093
1.4009825
1.4068633
1.4114399
1.414096
1.414402
1.4125792
1.409681
1.4072652
1.4066317
1.4080476
1.4104935
1.4121996
1.4117055
1.408777
1.4045765
1.4009857
1.3995752
1.4009547
1.4049377
1.4113054
1.4204046
1.4328377
1.4481555
1.4633514
1.472473
1.4683876
1.4466449
1.4099776
1.3709428
1.3501709
1.368916
1.4369713
1.5398718
1.6315317
1.6385367
1.479065
1.0928723
0.47124067
-0.3281029
-1.1918209
-1.9859682
-2.6001728
-2.9807355
-3.1390076
-3.1350112
-3.0477839
-2.947145
-2.8768785
-2.8515925
-2.8636172
-2.8941593
-2.923801
-2.9395347
-2.9375145
-2.922023
-2.9019067
-2.8860579
-2.8794854
-2.8811812
-2.884464
-2.8798316
-2.8595936
-2.8228276
-2.7786505
-2.7457116
-2.746436
-2.7961493
-2.8897233
-2.9911072
-3.03256
-2.928881
-2.606244
-2.0365646
-1.2611157
-0.38791984
0.44076565
1.0975244
1.5118598
1.6861701
1.6819081
1.5871689
1.4827476
1.419826
1.4140364
1.453109
1.5113288
1.5637553
1.5953897
1.6036637
1.5954336
1.5812935
1.5702101
1.566514
1.5697695
1.5767022
1.5836884
1.5884763
1.5905807
1.5906295
1.5894042
1.5872701
1.5842884
1.580761
1.5775841
1.5759256
1.5763806
1.5783241
1.5800952
1.5799873
1.5773616
1.5730872
1.5689847
1.5666386
1.566378
1.5671039
1.5670633
1.5650322
1.5611012
1.5565629
1.5530397
1.5515226
1.5520306
1.5541112
1.5577362
1.563773
1.5734533
1.586965
1.602022
1.6135286
1.6150904
1.6022937
1.576644
1.5481404
1.5341338
1.5529236
1.6127243
1.6995226
1.7696917
1.7535409
1.5730542
1.1707838
0.5392656
-0.26394615
-1.1266458
-1.916521
-2.525005
-2.9001043
-3.054507
-3.0490031
-2.9627404
-2.8650243
-2.7986479
-2.7770228
-2.7914517
-2.822633
-2.851323
-2.8652358
-2.8614132
-2.8447688
-2.8243
-2.808667
-2.8025968
-2.805096
-2.809891
-2.8080258
-2.792016
-2.7603905
-2.7209127
-2.6905117
-2.6903331
-2.7357113
-2.8233087
-2.9204655
-2.963469
-2.8702073
-2.5673244
-2.023587
-1.2739471
-0.41898668
0.4047368
1.0715326
1.5081158
1.7107415
1.7333995
1.6574384
1.5591905
1.4886038
1.4635262
1.4767021
1.5087411
1.5404329
1.5603062
1.5663936
1.5635285
1.5586878
1.5569404
1.5596373
1.5650448
1.570394
1.5738465
1.5753027
1.5758934
1.5768118
1.5784166
1.5801582
1.5812236
1.5813018
1.5808593
1.5807295
1.5813649
1.5823647
1.5826874
1.581437
1.5786605
1.5755343
1.5737072
1.5741757
1.5764403
1.5785521
1.5780978
1.5735569
1.5652043
1.5549973
1.5455285
1.5387309
1.5351714
1.5343561
1.5357311
1.5395135
1.5465407
1.5570133
1.5689024
1.5772836
1.5755863
1.5588167
1.5276443
1.491326
1.467238
1.475516
1.5290108
1.6211771
1.7168944
1.7523363
1.6483821
1.3369173
0.7918219
0.050337028
-0.7887725
-1.593765
-2.2439365
-2.6685271
-2.8630347
-2.87855
-2.7934196
-2.682573
-2.5967724
-2.5562756
-2.5563736
-2.5788453
-2.603498
-2.6160681
-2.6112945
-2.5919323
-2.5654402
-2.5401134
-2.5219097
-2.5125473
-2.5090218
-2.5045872
-2.4912288
-2.4633703
-2.4218671
-2.3765757
-2.345405
-2.3483236
-2.3966138
-2.480477
-2.5606956
-2.5708427
-2.4339879
-2.0915616
-1.5337908
-0.81576246
-0.04668242
0.6465021
1.1642283
1.4656322
1.5725591
1.5489862
1.4699917
1.395415
1.3567727
1.3579233
1.3846729
1.4170345
1.4391359
1.444237
1.4346884
1.4183335
1.40367
1.3959992
1.3959209
1.4002634
1.4044949
1.4051963
1.4014204
1.3945134
1.3868417
1.3803391
1.3756833
1.372382
1.3694756
1.3662381
1.3624249
1.3580569
1.353099
1.3473825
1.3408484
1.3338687
1.3272921
1.322075
1.3187416
1.3170826
1.3163028
1.3155084
1.3142507
1.3127915
1.3118742
1.312114
1.3134879
1.3153602
1.3170258
1.3183473
1.3200319
1.3232827
1.3288076
1.3355702
1.3401366
1.3374853
1.323459
1.2980385
1.2679238
1.2467119
1.2512416
1.2936966
1.3710183
1.4556935
1.4936259
1.4138942
1.1508725
0.67240846
0.0017653974
-0.77954316
-1.5533544
-2.2034385
-2.6535902
-2.8877769
-2.945164
-2.8961003
-2.8127918
-2.747319
-2.7229867
-2.737926
-2.775667
-2.8166914
-2.8467004
-2.859999
-2.8587284
-2.8498225
-2.8414693
-2.8401458
-2.8486135
-2.8650002
-2.88317
-2.8946667
-2.892233
-2.87415
-2.8477263
-2.8296423
-2.8411562
-2.8977623
-2.9957454
-3.1011968
-3.1487343
-3.0554378
-2.7494495
-2.2037647
-1.4588393
-0.6190847
0.17946406
0.8163827
1.2259403
1.4104624
1.4259001
1.3514259
1.2591107
1.1949432
1.1743813
1.1892682
1.2200941
1.2477893
1.261227
1.2591722
1.2476424
1.2349894
1.2272787
1.225894
1.2280457
1.229432
1.22728
1.2219774
1.2165484
1.2145839
1.2179937
1.2258486
1.2348524
1.2410636
1.2417796
1.2365012
1.2266115
1.2142768
1.2014223
1.1893364
1.1788893
1.1709409
1.1664785
1.1663154
1.1705556
1.1782393
1.1875067
1.1962783
1.2030704
1.2074217
1.2096816
1.2103766
1.2096697
1.207371
1.2035623
1.1993843
1.1972535
1.2000287
1.2093575
1.2240553
1.2395016
1.248693
1.2450149
1.2260543
1.19696
1.1713201
1.1677105
1.2012926
1.2720697
1.3541257
1.39213
1.3108182
1.0386946
0.53940886
-0.16314615
-0.9811343
-1.7868427
-2.4557416
-2.9082623
-3.1307466
-3.168383
-3.0978422
-2.995296
-2.9136176
-2.874673
-2.8746154
-2.8957803
-2.9186642
-2.9299185
-2.9252524
-2.9082384
-2.8868704
-2.8696122
-2.8621354
-2.8653476
-2.8749528
-2.882651
-2.8789709
-2.8573337
-2.8182838
-2.7721257
-2.7379405
-2.7375324
-2.7845721
-2.8718436
-2.962093
-2.9890347
-2.87292
-2.5490603
-1.9993808
-1.2712271
-0.4701795
0.2737542
0.85149676
1.2095852
1.3589711
1.3580812
1.2826997
1.1980323
1.1428887
1.1278898
1.1436213
1.1724257
1.1984639
1.2132118
1.2161249
1.2119157
1.2065878
1.2042071
1.2055871
1.2089618
1.2117977
1.2125343
1.2113224
1.2095531
1.2086918
1.2092485
1.2105108
1.2111204
1.2100428
1.207271
1.2038181
1.2010485
1.1998248
1.2000476
1.2008793
1.2014694
1.2016532
1.2021117
1.2038656
1.207447
1.212328
1.2170322
1.2198864
1.2199179
1.2172891
1.2130018
1.2081351
1.2032093
1.1981769
1.1930804
1.1888808
1.1877142
1.1920873
1.2031692
1.2190163
1.2339135
1.239789
1.2298018
1.2029773
1.1677089
1.1416022
1.1459111
1.1947627
1.2821399
1.3721824
1.3993433
1.2829037
0.954691
0.39087555
-0.36726034
-1.2170479
-2.0249362
-2.6711843
-3.087864
-3.2735605
-3.2814932
-3.1908085
-3.0760927
-2.9869366
-2.9419405
-2.9347632
-2.9462836
-2.9567506
-2.953775
-2.9347665
-2.9048185
-2.8723242
-2.844649
-2.8253632
-2.8134654
-2.8042407
-2.791112
-2.7679732
-2.7317207
-2.68464
-2.6358826
-2.6006787
-2.5957966
-2.6308188
-2.697195
-2.7599385
-2.7583792
-2.6206145
-2.2902517
-1.7556784
-1.066478
-0.32469156
0.34863085
0.8562605
1.1558602
1.2658277
1.24717
1.1738663
1.1062521
1.0766883
1.0892127
1.129034
1.1752789
1.2112311
1.2291487
1.2298518
1.2192695
1.2045288
1.1913234
1.1829842
1.1806824
1.1839622
1.1911947
1.2000053
1.2078621
1.2128255
1.2141836
1.2126229
1.2098138
1.2076193
1.2072911
1.2089949
1.2119125
1.2148871
1.2171553
1.2186236
1.2195902
1.2203163
1.2208971
1.2214886
1.2225823
1.2249666
1.2292982
1.2355485
1.2427427
1.2492614
1.2536101
1.2552068
1.2546695
1.2533982
1.2527049
1.2530507
1.2538766
1.254131
1.2531121
1.2510086
1.2487303
1.2471423
1.246288
1.2452236
1.2426503
1.2379097
1.2316166
1.2254362
1.2211218
1.2194607
1.2198563
1.2208492
1.2212209
1.2208903
1.220944
1.2227552
1.2268366
1.2323098
1.2374458
1.2409171
1.2428242
1.2446889
1.2483557
1.2545365
1.2620173
1.268146
1.2703686
1.2678231
1.2618883
1.2552738
1.2502674
1.2473617
1.2452246
1.2420179
1.2370888
1.2317526
1.2285215
1.2292823
1.2337403
1.2393209
1.2427164
1.2420722
1.2382759
1.2343837
1.2335217
1.2366998
1.242093
1.2463412
1.2469823
1.2442605
1.240944
1.2402154
1.243164
1.2478129
1.2506044
1.2494583
1.2461461
1.2458762
1.2537792
1.2703269
1.2889534
1.2981963
1.2880045
1.2571626
1.2176659
1.1927432
1.2075268
1.2744621
1.3786399
1.470142
1.4698328
1.2910305
0.87250125
0.21043885
-0.6269105
-1.5135056
-2.3060963
-2.893121
-3.2285886
-3.3369312
-3.2913518
-3.180028
-3.0759492
-3.0199974
-3.0191224
-3.0559156
-3.1033707
-3.1386216
-3.1511807
-3.1439586
-3.1282327
-3.115955
-3.1135237
-3.1199632
-3.129769
-3.1379232
-3.1434894
-3.1493847
-3.158634
-3.1699529
-3.1762764
-3.1681864
-3.141038
-3.1017778
-3.0706558
-3.074788
-3.1341915
-3.245007
-3.3674629
-3.4262965
-3.3281655
-2.9939835
-2.395515
-1.5790533
-0.66064614
0.20980224
0.9003012
1.3391958
1.5293127
1.5321367
1.4351448
1.3192753
1.2380035
1.2112491
1.2312872
1.2751688
1.3180342
1.3430433
1.3456583
1.3321425
1.3140205
1.3014848
1.2988324
1.3037586
1.3102424
1.312951
1.3105111
1.3058982
1.30401
1.3081855
1.3180033
1.3297639
1.3391827
1.3442863
1.3464377
1.348856
1.3538237
1.360657
1.3659208
1.3657858
1.3589249
1.3479047
1.3379858
1.3339858
1.337235
1.344668
1.3507499
1.3510549
1.3451669
1.3369378
1.3318986
1.3335712
1.3412234
1.3506422
1.3574129
1.3603929
1.3628483
1.3702534
1.3860261
1.4079468
1.4277617
1.4346882
1.4213097
1.3889462
1.3496947
1.3236648
1.3316191
1.3846415
1.4736055
1.5623012
1.5887572
1.4784025
1.1688209
0.6390173
-0.07039172
-0.8598627
-1.600404
-2.1781058
-2.5320134
-2.667771
-2.6441534
-2.5432074
-2.4392693
-2.3783267
-2.3722367
-2.406099
-2.4530952
-2.489652
-2.5049138
-2.5017998
-2.4910998
-2.4831562
-2.4821599
-2.4857929
-2.4893434
-2.4907131
-2.492555
-2.5000687
-2.5161183
-2.5372581
-2.5537689
-2.5542998
-2.5328443
-2.4942818
-2.4553268
-2.4397328
-2.4687428
-2.5493078
-2.6635318
-2.7635877
-2.7766454
-2.622796
-2.2439933
-1.634257
-0.85547394
-0.025929144
0.71768045
1.2676535
1.5789036
1.6745801
1.6256642
1.5180556
1.4224203
1.3767897
1.384705
1.4257895
1.4720697
1.502554
1.5105759
1.5024155
1.4899412
1.482443
1.4822855
1.4859873
1.4888132
1.4890876
1.4891863
1.4928712
1.5014119
1.5117614
1.5183285
1.5170168
1.5084336
1.4977943
1.4914808
1.49268
1.4992406
1.5053215
1.5056578
1.4993747
1.4906136
1.4855334
1.4878622
1.4962265
1.5052065
1.5093403
1.5071285
1.5020924
1.5001076
1.5049804
1.515571
1.5266926
1.5332016
1.5341966
1.5339718
1.5386142
1.5503865
1.5640159
1.5682467
1.5527825
1.5169991
1.4749955
1.4527724
1.4769467
1.5585753
1.678573
1.7818056
1.7850556
1.5999687
1.1660426
0.48189324
-0.380923
-1.2929338
-2.10808
-2.713018
-3.060795
-3.1752176
-3.129141
-3.0112479
-2.896486
-2.8289149
-2.8185778
-2.8494616
-2.8935533
-2.9254375
-2.9324126
-2.917004
-2.891934
-2.871029
-2.8613794
-2.8609738
-2.8624604
-2.8598263
-2.853104
-2.8477557
-2.8492033
-2.856573
-2.860663
-2.8486526
-2.813609
-2.763173
-2.7211943
-2.7189777
-2.777968
-2.8906617
-3.0090613
-3.0487888
-2.9119496
-2.5238357
-1.8698708
-1.0144434
-0.08803924
0.7555599
1.392607
1.7673073
1.8985963
1.8585263
1.7378278
1.6150631
1.5386591
1.5231755
1.5563271
1.6116441
1.6619146
1.6895746
1.6914717
1.6770532
1.6613383
1.6563346
1.665299
1.6825336
1.6981966
1.7048398
1.7016373
1.6939113
1.6886508
1.6893194
1.6935885
1.6954504
1.6900194
1.6774836
1.6633689
1.6549401
1.6562641
1.6653761
1.6755542
1.6799095
1.6761341
1.6680027
1.662479
1.6645057
1.6732838
1.682743
1.6859115
1.6801922
1.6698723
1.6639328
1.670307
1.6901883
1.7160771
1.7349495
1.7349182
1.7120003
1.6738055
1.6384798
1.628946
1.6636395
1.7455953
1.8525637
1.9322048
1.9074574
1.6956925
1.2394888
0.5381969
-0.3364051
-1.2534242
-2.0639644
-2.6523154
-2.9727552
-3.0558364
-2.9849827
-2.858007
-2.7518508
-2.7034876
-2.7106164
-2.7471251
-2.783342
-2.8011723
-2.798723
-2.7852025
-2.7715476
-2.7632413
-2.7590966
-2.7553122
-2.750656
-2.748373
-2.753246
-2.766066
-2.7799902
-2.782334
-2.7618427
-2.7176497
-2.6644447
-2.629742
-2.6426933
-2.7178261
-2.8398414
-2.9563904
-2.9843802
-2.8317883
-2.4309936
-1.7721517
-0.9201518
-0.0021964498
0.83287656
1.4654258
1.8413264
1.9787298
1.9476999
1.8371439
1.7243892
1.6566404
1.6466612
1.6802517
1.7304243
1.7721955
1.7926329
1.7931383
1.7843764
1.7775745
1.7774408
1.7805864
1.7797022
1.7700679
1.753649
1.7379224
1.7303993
1.7329149
1.7399385
1.7422439
1.7333783
1.7143041
1.692925
1.6789031
1.6774794
1.6865983
1.6992359
1.7091378
1.71569
1.7241446
1.7407093
1.7658513
1.7907978
1.800447
1.7818274
1.7334962
1.6702238
1.6196045
1.6112477
1.6625562
1.7663538
1.8850113
1.9541836
1.897343
1.6495007
1.1840913
0.5321402
-0.21818283
-0.94628453
-1.5393391
-1.929106
-2.1085944
-2.1240463
-2.050084
-1.960877
-1.9080799
-1.9112
-1.9609265
-2.031766
-2.0976095
-2.143505
-2.1692982
-2.185008
-2.2018924
-2.2250547
-2.2519212
-2.2767003
-2.2968204
-2.3161683
-2.342453
-2.3804226
-2.425984
-2.4661963
-2.48645
-2.4812148
-2.46179
-2.4553225
-2.4934251
-2.5939634
-2.743497
-2.8888311
-2.9438741
-2.8132284
-2.4273083
-1.7765263
-0.927827
-0.0110905515
0.8226639
1.4525571
1.8239131
1.9545641
1.91437
1.7924714
1.6672511
1.5877452
1.5686247
1.5966132
1.64396
1.6835253
1.700118
1.6943498
1.6784046
1.6667924
1.6674803
1.6782316
1.6896816
1.6925812
1.6842207
1.6698624
1.6585617
1.6566135
1.6633136
1.671863
1.6745462
1.6683528
1.6570036
1.6480172
1.647056
1.6536986
1.661703
1.6636543
1.6567366
1.6453671
1.6384639
1.6429493
1.6579124
1.6736082
1.6764446
1.6573837
1.6190493
1.5774236
1.5567132
1.5789495
1.6516836
1.7576709
1.8504384
1.859363
1.706498
1.333487
0.7303816
-0.04753801
-0.8876295
-1.6538883
-2.233041
-2.5706902
-2.681535
-2.6326406
-2.5114303
-2.3938053
-2.3238094
-2.3092551
-2.3312564
-2.3611474
-2.3765745
-2.3701725
-2.3485322
-2.3241518
-2.3062077
-2.2957296
-2.287318
-2.2751052
-2.258114
-2.241055
-2.2300794
-2.2266898
-2.2245114
-2.2119448
-2.1798382
-2.1297853
-2.0777183
-2.0494967
-2.068965
-2.1426468
-2.2474098
-2.3273733
-2.3041725
-2.1006618
-1.6722333
-1.0334451
-0.26490957
0.50810605
1.1585562
1.6012299
1.8159463
1.8426224
1.7560489
1.6352111
1.5394838
1.4974238
1.507986
1.5504911
1.5982404
1.6306891
1.640257
1.6320384
1.6176673
1.6073036
1.604381
1.6056308
1.6053662
1.6005069
1.5928334
1.5872262
1.5875455
1.593391
1.6001698
1.6023848
1.5976728
1.5885907
1.5808262
1.5791807
1.5843107
1.5925468
1.5987496
1.5999658
1.5972219
1.594283
1.5944787
1.5981013
1.6024042
1.6041739
1.6027777
1.6011095
1.6033572
1.610958
1.6197304
1.6208057
1.6056985
1.5730525
1.5330695
1.5062504
1.5154767
1.5734254
1.6697557
1.7637104
1.7873358
1.6620477
1.3263443
0.7656769
0.030147506
-0.77269053
-1.5112735
-2.0755045
-2.4120307
-2.5335538
-2.5019882
-2.3979537
-2.2918181
-2.2261908
-2.21235
-2.2376645
-2.2785385
-2.3131535
-2.3296363
-2.32774
-2.3149447
-2.300133
-2.2886515
-2.281171
-2.2760415
-2.2726038
-2.2726195
-2.2786052
-2.2903042
-2.3022094
-2.3047757
-2.2896903
-2.2567534
-2.218247
-2.1970818
-2.2173824
-2.2897296
-2.3967185
-2.486279
-2.479201
-2.2928653
-1.8754812
-1.2366737
-0.45681006
0.33497488
1.0066116
1.4698001
1.7042611
1.7513357
1.6862144
1.5857099
1.5050752
1.469171
1.4762455
1.5089306
1.5464852
1.5738378
1.5854084
1.5839753
1.5764375
1.5690893
1.564725
1.5625535
1.5602279
1.5562531
1.551134
1.5467006
1.5444038
1.5440385
1.5438479
1.5418147
1.5370995
1.530574
1.524108
1.5192178
1.5161388
1.5139785
1.5116922
1.5090166
1.5066247
1.5054415
1.5057752
1.507099
1.508749
1.5109074
1.5148414
1.521845
1.5313469
1.539543
1.5400031
1.5267526
1.4987401
1.4633383
1.4363323
1.4368387
1.4775393
1.5531031
1.6318082
1.6559943
1.5550697
1.2699825
0.7812589
0.1272524
-0.59971976
-1.2817019
-1.8160776
-2.1492715
-2.2878308
-2.2850924
-2.2138004
-2.1387343
-2.0993989
-2.1060529
-2.1467142
-2.1996868
-2.2456439
-2.2748842
-2.2882612
-2.293187
-2.297909
-2.3073227
-2.322084
-2.3405583
-2.3615084
-2.3852835
-2.412619
-2.4420624
-2.4682996
-2.483372
-2.4810402
-2.4623973
-2.439491
-2.4338865
-2.4688044
-2.5561764
-2.682893
-2.802598
-2.8395267
-2.7078607
-2.3435023
-1.7367718
-0.949279
-0.10209657
0.6634909
1.2350581
1.5641034
1.6722163
1.6302295
1.5246177
1.427181
1.3779173
1.3830705
1.4246452
1.4751307
1.5111918
1.5218796
1.5096956
1.4857984
1.4627255
1.448454
1.4442807
1.4466622
1.4510288
1.4548281
1.458063
1.4616282
1.4653087
1.4672595
1.465352
1.4591656
1.4508805
1.4441955
1.4419624
1.4442683
1.4484227
1.4508944
1.4497914
1.4460634
1.4425622
1.4416963
1.4434787
1.4455037
1.4449606
1.4412011
1.4367961
1.4359648
1.4411298
1.4498839
1.4547724
1.4468229
1.421512
1.3840896
1.3508865
1.3445476
1.3835031
1.4686259
1.5722022
1.6352485
1.5779037
1.3233731
0.8291484
0.11276207
-0.74210614
-1.6062804
-2.346209
-2.8675427
-3.1414368
-3.2036242
-3.1306245
-3.0069466
-2.8976748
-2.8349392
-2.8193514
-2.8318713
-2.8489797
-2.8544896
-2.844171
-2.8232663
-2.8001347
-2.7804008
-2.7647204
-2.7505345
-2.7356205
-2.720396
-2.7071662
-2.6969361
-2.6864514
-2.6683605
-2.6355047
-2.5874202
-2.5350606
-2.4997704
-2.5047846
-2.5611622
-2.6535797
-2.7332337
-2.7241204
-2.5447886
-2.1406853
-1.5144179
-0.7374812
0.06723284
0.76743287
1.2678434
1.538104
1.6113789
1.5597718
1.462183
1.3789332
1.3400391
1.3466512
1.3810209
1.4193828
1.4430181
1.4444627
1.4278035
1.4040903
1.3846436
1.3756644
1.3765059
1.3817809
1.3854475
1.3842647
1.37881
1.372011
1.3666791
1.3638703
1.3629365
1.362794
1.3631878
1.3649373
1.3690408
1.3754655
1.3827512
1.3888876
1.3928026
1.3952013
1.3979541
1.4024054
1.407893
1.4117031
1.4106601
1.4033229
1.391242
1.3783226
1.3686545
1.3642528
1.364203
1.3656973
1.3661364
1.3647779
1.3628008
1.3618566
1.3623399
1.3628505
1.361386
1.3573731
1.3528329
1.3514245
1.3556075
1.363711
1.3692144
1.3635343
1.341534
1.3070138
1.2747064
1.2662743
1.3001809
1.37827
1.4743897
1.5313565
1.4710943
1.2183697
0.73175657
0.029059295
-0.8068934
-1.6489927
-2.3665879
-2.8681567
-3.1265023
-3.177127
-3.094631
-2.9610162
-2.8397384
-2.76317
-2.7339156
-2.7354305
-2.745493
-2.746935
-2.7326024
-2.704484
-2.669212
-2.6330934
-2.5992699
-2.5678735
-2.538091
-2.5100136
-2.4846244
-2.46192
-2.4388745
-2.4095116
-2.368144
-2.3145874
-2.258212
-2.2172902
-2.2116947
-2.2502396
-2.317555
-2.3676128
-2.3303244
-2.1332126
-1.7325543
-1.140488
-0.43199244
0.27658695
0.86952335
1.2727785
1.4735675
1.512293
1.4564438
1.372208
1.3054931
1.2759533
1.2813057
1.3067205
1.3345953
1.35181
1.353277
1.3417754
1.3249397
1.3109858
1.3050297
1.3074155
1.314489
1.3211472
1.32372
1.3216962
1.3175404
1.3149091
1.3163676
1.3219308
1.329274
1.3354052
1.3385715
1.339092
1.3387324
1.3393062
1.3415427
1.3448609
1.3480155
1.3500501
1.350862
1.3510168
1.3510067
1.3505824
1.3487555
1.3445814
1.3382046
1.3313854
1.3270024
1.3276732
1.3342515
1.3451718
1.3571609
1.3669415
1.3728424
1.3753312
1.3762525
1.3773707
1.3791078
1.380222
1.3787118
1.3735346
1.3660264
1.3598642
1.3592787
1.3664312
1.3794633
1.3923844
1.3970984
1.3869867
1.3608378
1.3255942
1.2963679
1.2924792
1.3291167
1.4059042
1.4961293
1.5426084
1.4662658
1.1896558
0.6698141
-0.07359486
-0.95142287
-1.8279651
-2.566144
-3.0739465
-3.3301685
-3.379782
-3.305615
-3.192857
-3.1021347
-3.0590622
-3.0593157
-3.082539
-3.1070144
-3.1191938
-3.1160638
-3.101964
-3.0834317
-3.065442
-3.0504756
-3.0396135
-3.0336912
-3.0330422
-3.035919
-3.0371385
-3.0288603
-3.0042903
-2.9630826
-2.9155114
-2.8821032
-2.8867257
-2.9438274
-3.0438175
-3.1432035
-3.1666331
-3.025197
-2.6487467
-2.0210512
-1.2001022
-0.30865198
0.5054617
1.1213669
1.4837363
1.6110201
1.5746486
1.4641162
1.3550055
1.2906481
1.2797564
1.3061963
1.3441896
1.3721977
1.3808239
1.3732868
1.3601793
1.3521945
1.3546672
1.3661901
1.3811178
1.3937668
1.4015853
1.405651
1.4087515
1.4127901
1.4174035
1.4205672
1.4204816
1.417221
1.4129268
1.4104416
1.4114203
1.4153085
1.4199231
1.4231992
1.4247825
1.4262154
1.4295075
1.4351926
1.441445
1.4450091
1.4432917
1.4361271
1.4260006
1.4165854
1.4105754
1.408264
1.4077917
1.4068195
1.404388
1.4016093
1.4006958
1.4030876
1.4081482
1.4134547
1.4164597
1.4162339
1.4139647
1.4118509
1.411274
1.411712
1.4113533
1.4090756
1.4063103
1.4071754
1.4163191
1.4354862
1.4609089
1.4835047
1.4925336
1.4814669
1.4533517
1.4226391
1.4114249
1.4399827
1.5138478
1.6119562
1.6817229
1.6464423
1.426964
0.97301364
0.29195353
-0.54066074
-1.3985972
-2.146094
-2.6840498
-2.9792743
-3.064977
-3.0166306
-2.9181304
-2.8337827
-2.7949772
-2.8021536
-2.836827
-2.8762739
-2.9045844
-2.9169192
-2.9173963
-2.9136758
-2.9119914
-2.9150467
-2.9228246
-2.9345136
-2.949475
-2.9664116
-2.9817028
-2.9889867
-2.981602
-2.95758
-2.9246511
-2.9015656
-2.9127924
-2.9763417
-3.0882096
-3.2102578
-3.2694232
-3.173688
-2.8437135
-2.2498507
-1.4368954
-0.5201765
0.35030007
1.04229
1.4844532
1.6806347
1.6934253
1.6104941
1.5112903
1.4461173
1.4309925
1.455137
1.4948344
1.5272088
1.5392724
1.5303897
1.5090426
1.4866594
1.4718136
1.4672569
1.4704741
1.4766166
1.4816808
1.4840803
1.4841155
1.4823761
1.4786792
1.4723684
1.4635018
1.4537355
1.4459867
1.4429191
1.4452652
1.4512668
1.4577377
1.4620137
1.4634168
1.463311
1.4638838
1.4665855
1.4712652
1.4765191
1.4809331
1.4842534
1.4875398
1.4921309
1.4982382
1.5043359
1.5078968
1.5069643
1.5014174
1.493042
1.484374
1.4771248
1.471307
1.4657133
1.4593829
1.4528562
1.448132
1.4472812
1.4507483
1.4566253
1.4615173
1.4625702
1.4593914
1.4544399
1.4512802
1.4515827
1.4529068
1.4491465
1.4340154
1.4060425
1.3723671
1.3487748
1.3546934
1.403746
1.4923743
1.5906972
1.6407039
1.5661623
1.2950958
0.78930825
0.06885028
-0.7824694
-1.6376624
-2.3670735
-2.8809717
-3.1546595
-3.2263937
-3.1728408
-3.0762897
-2.9981043
-2.9665933
-2.9797256
-3.0175636
-3.0571156
-3.0832813
-3.092644
-3.0906358
-3.0854542
-3.0828774
-3.0845566
-3.0896304
-3.0973508
-3.1081593
-3.122254
-3.1369884
-3.1458023
-3.1407406
-3.1182232
-3.0850143
-3.0600605
-3.0689192
-3.1307359
-3.2418756
-3.3635907
-3.4217677
-3.3237758
-2.9906824
-2.394111
-1.5802233
-0.66497785
0.20201848
0.8895068
1.3269167
1.5181298
1.5251924
1.4352661
1.3278749
1.2540655
1.2309095
1.248482
1.2834044
1.3127344
1.3235061
1.3156493
1.2986442
1.2845111
1.2809285
1.287826
1.2987442
1.3056117
1.3038155
1.2945654
1.2834204
1.2762637
1.2754828
1.278812
1.2814305
1.2796538
1.273487
1.2662654
1.2618482
1.2615887
1.2633247
1.2630537
1.2579995
1.2487856
1.2390974
1.2330655
1.2322754
1.2345816
1.2356056
1.2318655
1.2232975
1.2133309
1.2064377
1.2049074
1.2071588
1.2088107
1.2057657
1.1971123
1.1857581
1.1763456
1.1719806
1.1721618
1.1734046
1.1720653
1.1672297
1.1614792
1.1589121
1.1618268
1.1684988
1.1738132
1.1725771
1.1633445
1.1499925
1.1396419
1.1379814
1.1449175
1.1534834
1.1531265
1.1359456
1.1026661
1.0650612
1.0429896
1.0562638
1.113389
1.200653
1.276073
1.2729039
1.1157258
0.74743354
0.15828146
-0.5975068
-1.4101088
-2.1481652
-2.7039313
-3.027675
-3.1361947
-3.0953295
-2.9885147
-2.886558
-2.8293664
-2.8231735
-2.850449
-2.8857198
-2.9096568
-2.915991
-2.910017
-2.9015872
-2.897701
-2.8990488
-2.9017572
-2.902071
-2.9000142
-2.8991618
-2.902686
-2.9088254
-2.909784
-2.8960268
-2.8641624
-2.8235786
-2.796651
-2.8099985
-2.8787885
-2.9904191
-3.095922
-3.1159606
-2.963459
-2.5775173
-1.9555492
-1.1668314
-0.33620596
0.39813006
0.93292624
1.2305015
1.3195214
1.2712376
1.1669965
1.0718558
1.0214419
1.0216647
1.057049
1.102817
1.1366125
1.146725
1.1347549
1.1123536
1.0939531
1.0892122
1.0989281
1.1161628
1.1313834
1.138242
1.1365031
1.1307137
1.1260766
1.1246551
1.1244763
1.121852
1.1149359
1.1057198
1.0989373
1.0987109
1.105458
1.1153482
1.1227592
1.1240258
1.1198252
1.1144949
1.1127882
1.1164026
1.1227547
1.1268733
1.1250796
1.1178247
1.1096175
1.1060547
1.1100422
1.1198659
1.1304493
1.1369035
1.1378406
1.1360881
1.1363212
1.1413665
1.1498698
1.1570385
1.1579868
1.151336
1.1404713
1.1315004
1.1293234
1.1345927
1.1437289
1.1520188
1.1575683
1.163121
1.1741499
1.1942863
1.2211733
1.2458025
1.2563782
1.2450024
1.2136428
1.1760066
1.1538199
1.1683314
1.2294862
1.3260382
1.4202214
1.4505885
1.3455954
1.0472225
0.53798974
-0.14111716
-0.8943653
-1.5997968
-2.151115
-2.4926069
-2.6310828
-2.6225824
-2.5440903
-2.464574
-2.426038
-2.4386585
-2.4881625
-2.5498443
-2.6024055
-2.6361773
-2.6535811
-2.6635454
-2.674259
-2.6887987
-2.7056541
-2.7226248
-2.7403796
-2.762584
-2.7922935
-2.827395
-2.8591087
-2.8759198
-2.8716471
-2.8530433
-2.84148
-2.865502
-2.9453776
-3.07536
-3.2120757
-3.2768383
-3.1755211
-2.832452
-2.2264502
-1.4116371
-0.5087289
0.33367327
0.99069196
1.4003338
1.5731248
1.5731113
1.4848989
1.383384
1.315983
1.2988384
1.3233321
1.3677064
1.4091117
1.4326297
1.4352022
1.4239974
1.410632
1.4043312
1.4074945
1.4157292
1.4218333
1.420941
1.4134967
1.4043455
1.3989408
1.3995339
1.403945
1.4075658
1.407038
1.4029691
1.3997283
1.4023945
1.4129671
1.4285091
1.4425948
1.4491562
1.446148
1.4365422
1.4260342
1.4191375
1.4163929
1.4145514
1.4094648
1.3995339
1.3872025
1.3774321
1.3742987
1.3782004
1.3857025
1.3921438
1.3951225
1.3962808
1.4000009
1.4098938
1.4256399
1.4425551
1.4543419
1.4572017
1.4524394
1.4456654
1.443066
1.4472822
1.4557391
1.46263
1.4632645
1.4578035
1.4516921
1.4522659
1.4635628
1.4826049
1.4996237
1.5025598
1.4838649
1.4462987
1.404601
1.381465
1.3983493
1.463522
1.5610613
1.6453909
1.6459646
1.4848173
1.1047201
0.49845272
-0.2755095
-1.1029626
-1.8495275
-2.4066796
-2.7262714
-2.8284175
-2.7827435
-2.675489
-2.5782712
-2.5297182
-2.5335202
-2.5695665
-2.6106846
-2.6369588
-2.6423628
-2.6329114
-2.6195161
-2.6105726
-2.6083817
-2.6104958
-2.6138127
-2.6177917
-2.6242957
-2.6343467
-2.6446297
-2.6471517
-2.6335194
-2.6020274
-2.5632412
-2.539579
-2.5567548
-2.628872
-2.7428565
-2.8500245
-2.8716414
-2.7209485
-2.336765
-1.7157003
-0.9260063
-0.091677725
0.64929616
1.1928399
1.4993829
1.5951438
1.5492524
1.4420806
1.339214
1.2780746
1.2670134
1.2929387
1.3327949
1.364827
1.3765554
1.3675718
1.3469423
1.3270044
1.3168104
1.3183879
1.3272852
1.3364662
1.3408816
1.3399259
1.3365993
1.3344469
1.3346868
1.3355289
1.3339596
1.3284912
1.3207128
1.3143985
1.3127694
1.3158948
1.3201545
1.3202881
1.3127631
1.2981944
1.2810961
1.2670827
1.2594259
1.257297
1.2568332
1.2542164
1.2485588
1.2425158
1.2401774
1.2437546
1.2514744
1.2582784
1.2589552
1.2515827
1.2388812
1.226514
1.2194912
1.2191031
1.2224127
1.2245994
1.2225052
1.2168796
1.211695
1.2110037
1.215603
1.2219568
1.2242787
1.218508
1.2055479
1.1914637
1.1842148
1.1887268
1.2032572
1.2194002
1.2261026
1.2158395
1.1898241
1.1595225
1.1433533
1.1591618
1.2142485
1.2956618
1.3644571
1.3582586
1.2054576
0.8503046
0.2811338
-0.4522407
-1.2449809
-1.969432
-2.5194452
-2.8450308
-2.9615757
-2.9328997
-2.840117
-2.751726
-2.7058372
-2.7079592
-2.741156
-2.781524
-2.811426
-2.8255162
-2.8288388
-2.8301387
-2.8352628
-2.844462
-2.8543487
-2.8621285
-2.8685102
-2.8769665
-2.8898575
-2.9044833
-2.9126604
-2.905315
-2.8801117
-2.8474913
-2.8303246
-2.8549397
-2.9355137
-3.0579681
-3.1715517
-3.1950462
-3.0398247
-2.6444695
-2.0075262
-1.2010351
-0.35335842
0.3942999
0.93708223
1.2372181
1.3243419
1.2710828
1.1600064
1.0569453
0.9979851
0.98962384
1.0174865
1.0583103
1.0910043
1.1039975
1.0974364
1.0803218
1.0644423
1.0582117
1.0633146
1.0753949
1.0878086
1.0959022
1.0992256
1.1006273
1.1032895
1.1080172
1.1126769
1.1140337
1.1105125
1.1037676
1.0978408
1.0964837
1.1005595
1.1073563
1.1123005
1.1119131
1.1059893
1.0975169
1.0904336
1.0868341
1.085591
1.0833421
1.0771562
1.0669996
1.0562295
1.0496962
1.0507096
1.0589213
1.0705477
1.080772
1.0866901
1.0888048
1.0901085
1.0934939
1.0993866
1.1052884
1.1075722
1.1042734
1.0968741
1.089701
1.0872029
1.0908828
1.0980006
1.1030606
1.1012838
1.0918757
1.078888
1.0689571
1.0672106
1.0738586
1.083634
1.0885965
1.0828844
1.0669487
1.0491645
1.0438818
1.065993
1.1227936
1.2048678
1.2792771
1.2897308
1.1680205
0.8571218
0.3391571
-0.3453652
-1.1006519
-1.8045154
-2.3510978
-2.6862655
-2.819132
-2.8076441
-2.729237
-2.6516323
-2.614667
-2.626749
-2.6732488
-2.7305682
-2.7790508
-2.809953
-2.82526
-2.8325922
-2.8392642
-2.8490016
-2.8623824
-2.879379
-2.9012089
-2.929637
-2.964124
-2.9992228
-3.0250008
-3.03162
-3.0164
-2.9894683
-2.973796
-2.997328
-3.0783598
-3.209086
-3.344827
-3.4064307
-3.2998695
-2.950056
-2.3371048
-1.5173054
-0.6140955
0.22152954
0.8637929
1.2522265
1.4013503
1.380406
1.2781618
1.1706375
1.1028973
1.0868232
1.110274
1.1507146
1.1873745
1.2085183
1.2130097
1.2072705
1.1999557
1.1970953
1.1998292
1.2053148
1.2096682
1.2108752
1.2099086
1.2096033
1.2123065
1.217999
1.2241186
1.2271137
1.2246401
1.2169687
1.2067811
1.197618
1.1920398
1.1906097
1.1921636
1.1949949
1.1980665
1.2014598
1.2058622
1.2115644
1.2177496
1.2226349
1.2244208
1.2224277
1.2176371
1.2122425
1.2084777
1.2074665
1.2088104
1.2111285
1.2131437
1.2146004
1.216452
1.2202315
1.227006
1.2365551
1.2472856
1.2569362
1.2636441
1.2667389
1.2668071
1.265025
1.2622355
1.2584132
1.2528944
1.2452312
1.2361165
1.2277284
1.2231123
1.2247597
1.2330208
1.2451699
1.2557507
1.2584255
1.2489741
1.228492
1.2053859
1.194609
1.2128869
1.2698205
1.3569179
1.439156
1.4551525
1.3307029
1.0051999
0.4622266
-0.25110403
-1.0301576
-1.7460378
-2.291451
-2.6161544
-2.7357109
-2.7134016
-2.6284065
-2.5464365
-2.5034654
-2.5048707
-2.535709
-2.5748618
-2.606347
-2.624155
-2.6307542
-2.632175
-2.633331
-2.6360638
-2.6401265
-2.6454012
-2.6531286
-2.6649666
-2.6805074
-2.6953018
-2.7015786
-2.6923635
-2.6673968
-2.6375103
-2.6239445
-2.650686
-2.7309308
-2.8522599
-2.9675949
-2.9990191
-2.858114
-2.4794052
-1.8546714
-1.0503159
-0.19420093
0.5663754
1.1164343
1.4095372
1.4733286
1.3869848
1.2455381
1.1275021
1.0760559
1.096299
1.1653332
1.2488002
1.3168119
1.3538036
1.3601652
1.3471417
1.3288693
1.3156899
1.3112665
1.3136498
1.3185743
1.3226639
1.3248978
1.3261253
1.3276464
1.3301363
1.3335177
1.3374964
1.3420357
1.3472604
1.3528966
1.3578466
1.3604275
1.3592678
1.3543038
1.3471475
1.3404438
1.3365077
1.3360995
1.3381612
1.3406615
1.3419241
1.3415191
1.3401711
1.338871
1.3379653
1.3369682
1.3352133
1.3327562
1.3307238
1.330724
1.3336501
1.338738
1.3436443
1.345625
1.3430879
1.3365035
1.3280823
1.3204648
1.3153464
1.312968
1.3127059
1.3141314
1.3175988
1.3238597
1.3330317
1.3438255
1.3538187
1.3607929
1.3642411
1.3658197
1.3681055
1.3721946
1.3756943
1.3728151
1.3572996
1.3272604
1.2895437
1.2607456
1.2627897
1.3128865
1.4103398
1.525265
1.5956928
1.5384264
1.2744008
0.76169556
0.022144236
-0.85379285
-1.730857
-2.4734592
-2.9905388
-3.260135
-3.3248122
-3.264565
-3.1628973
-3.0807903
-3.0458586
-3.0559971
-3.0917795
-3.130553
-3.156695
-3.1654723
-3.1610537
-3.1514142
-3.1434712
-3.1407094
-3.1435442
-3.1510122
-3.1619372
-3.1746123
-3.1855624
-3.1891036
-3.1792686
-3.1541388
-3.12056
-3.0958354
-3.1032917
-3.1609025
-3.265905
-3.3820417
-3.4376814
-3.3409188
-3.0111232
-2.4167337
-1.6012363
-0.68024
0.19421443
0.8869359
1.3242213
1.5094347
1.5068389
1.4070163
1.2922018
1.2145152
1.1909064
1.2112112
1.2522653
1.2912681
1.3141483
1.3178722
1.3080405
1.2941909
1.285142
1.285947
1.2970121
1.3150634
1.3351086
1.3524204
1.363831
1.3681244
1.3657286
1.3580894
1.3470657
1.3345348
1.3221844
1.3113569
1.3028743
1.2969097
1.2930198
1.2903891
1.2881843
1.285833
1.2831125
1.2801063
1.2771429
1.2747337
1.2734411
1.2736529
1.2753583
1.2780714
1.281014
1.2835152
1.2853879
1.2869968
1.288932
1.2914945
1.2943771
1.2968102
1.29811
1.2982086
1.297711
1.2973891
1.2974868
1.2973908
1.2960038
1.2926438
1.2878329
1.283301
1.2810662
1.2821741
1.286005
1.2907293
1.2947129
1.297908
1.3020872
1.30946
1.3203398
1.3313545
1.3356663
1.325749
1.2978659
1.2562084
1.2143557
1.1924328
1.2096877
1.2738534
1.3704318
1.4565219
1.4641956
1.3166333
0.95539755
0.36995664
-0.38529903
-1.199556
-1.9404638
-2.5002573
-2.8304121
-2.9493759
-2.9238038
-2.8363326
-2.755675
-2.7195473
-2.7330842
-2.7790506
-2.8328664
-2.8754275
-2.8992987
-2.9077044
-2.9090087
-2.9107883
-2.9167137
-2.927062
-2.9412282
-2.9596148
-2.9831858
-3.0110257
-3.0380604
-3.0554662
-3.0547905
-3.034285
-3.0039473
-2.985503
-3.005233
-3.0805938
-3.20494
-3.3370433
-3.4023125
-3.3098679
-2.983609
-2.397253
-1.5969704
-0.6966876
0.15665238
0.8334016
1.2628566
1.4476466
1.4486325
1.3526908
1.2400988
1.1632887
1.1406399
1.162701
1.2052741
1.2434483
1.2618749
1.2586437
1.2426631
1.2269181
1.2214154
1.2292196
1.2469082
1.2682282
1.2881598
1.3048499
1.318682
1.3298404
1.3366225
1.3359342
1.3256052
1.3067231
1.2841132
1.2643805
1.252679
1.2502886
1.254503
1.2607436
1.2653928
1.2675471
1.2687969
1.2715156
1.277037
1.284948
1.2937471
1.3021015
1.3096117
1.3165368
1.3228456
1.3275446
1.3290344
1.326385
1.3205652
1.3145293
1.3118172
1.3144324
1.3214078
1.3291361
1.3334031
1.3318686
1.3253677
1.3171576
1.3106343
1.3070991
1.3051372
1.3020332
1.2961696
1.2886153
1.2826937
1.2817992
1.2870262
1.2963606
1.3060951
1.3134831
1.3186438
1.324163
1.332435
1.3424745
1.3485929
1.3424853
1.3182981
1.2782598
1.235615
1.2123197
1.2308198
1.3016602
1.4110025
1.5136843
1.5373532
1.4005996
1.0423969
0.4526911
-0.31118247
-1.1346874
-1.8825651
-2.445624
-2.7751102
-2.8897574
-2.8565614
-2.7586017
-2.6654792
-2.6163955
-2.6182024
-2.6548357
-2.7016473
-2.7381563
-2.7549777
-2.7539618
-2.7435446
-2.7328277
-2.727575
-2.729456
-2.737676
-2.750919
-2.767847
-2.7859068
-2.7998915
-2.8024027
-2.7873566
-2.755475
-2.7186322
-2.6992965
-2.7226896
-2.8025458
-2.9253697
-3.0410104
-3.0672965
-2.9123843
-2.510488
-1.8572435
-1.0257435
-0.14984936
0.6216526
1.1783195
1.4820205
1.567427
1.5145353
1.4112707
1.3239127
1.2842745
1.292798
1.3308918
1.3748978
1.4064554
1.4173257
1.4091918
1.3901584
1.3700544
1.356458
1.3526529
1.3577396
1.3682877
1.3804538
1.3915339
1.4004364
1.4072449
1.412419
1.4161603
1.4182309
1.4182072
1.4159212
1.4117885
1.4068445
1.4024593
1.3998203
1.399426
1.4008762
1.4030944
1.4048529
1.4053122
1.4042951
1.4021646
1.3994435
1.3964908
1.3934855
1.390698
1.3887925
1.3888345
1.3918145
1.397872
1.405758
1.4130733
1.4173896
1.4177455
1.415574
1.4142152
1.4169264
1.4243393
1.4329194
1.435697
1.4255006
1.3995934
1.3636129
1.3325379
1.3271314
1.3656677
1.4524915
1.5669658
1.6580799
1.6501961
1.4627148
1.0403211
0.38274968
-0.44152543
-1.309094
-2.0808237
-2.6492853
-2.9716945
-3.074386
-3.0309741
-2.9283946
-2.836848
-2.793594
-2.8024328
-2.8446596
-2.8944688
-2.931983
-2.9495697
-2.9507673
-2.944447
-2.9384706
-2.9363863
-2.9381661
-2.9431875
-2.9524293
-2.967847
-2.989296
-3.011562
-3.0245683
-3.0180926
-2.9892826
-2.9487574
-2.9207149
-2.9345448
-3.00926
-3.1361392
-3.2676663
-3.3206043
-3.1971405
-2.8205922
-2.1730585
-1.31641
-0.38154393
0.4740375
1.1214924
1.5015802
1.6333877
1.5922186
1.4727002
1.3553588
1.287669
1.281344
1.3214115
1.380419
1.4319041
1.4594094
1.4595803
1.4397398
1.4119221
1.3864552
1.368088
1.3560764
1.3473493
1.3402027
1.3359201
1.3373698
1.3458939
1.3590516
1.3711001
1.3760592
1.3713331
1.3594216
1.3465011
1.3387331
1.3386586
1.3439504
1.3492476
1.3497937
1.344458
1.3361717
1.329619
1.327895
1.3304732
1.3338313
1.3342214
1.3305771
1.3254467
1.3232429
1.3270458
1.3362293
1.3466051
1.353029
1.3527138
1.3469635
1.3401232
1.3365024
1.3374573
1.340672
1.3420957
1.3390872
1.3324546
1.3259045
1.323325
1.3258594
1.3308705
1.333634
1.3307413
1.3228645
1.3147534
1.3121188
1.3172383
1.3261646
1.3296548
1.3178657
1.2866488
1.2421944
1.2013482
1.1866375
1.2169107
1.2959335
1.4024189
1.4858627
1.4726301
1.284705
0.8684157
0.22320579
-0.58448505
-1.4339515
-2.188304
-2.741314
-3.0504599
-3.1418998
-3.0890439
-2.978567
-2.8799987
-2.829321
-2.828782
-2.8586106
-2.8931103
-2.913861
-2.9155633
-2.9040523
-2.8895159
-2.8795989
-2.8761895
-2.876798
-2.8784008
-2.880375
-2.8842735
-2.8907876
-2.896548
-2.8939445
-2.8752835
-2.8395295
-2.7975273
-2.771422
-2.7862136
-2.8551714
-2.964648
-3.0659113
-3.0807152
-2.9231174
-2.5328693
-1.9075626
-1.1164334
-0.28413713
0.45158026
0.9881426
1.2884126
1.3811103
1.337035
1.2368265
1.1448025
1.095922
1.095686
1.1287937
1.1713824
1.2023586
1.2107261
1.1975021
1.172606
1.1487689
1.1354555
1.1354492
1.1452224
1.1582526
1.1690345
1.1754595
1.1785439
1.1802875
1.1814971
1.1811285
1.1774533
1.1700134
1.160743
1.1532563
1.1507047
1.1537087
1.1598599
1.1652093
1.1667747
1.1643616
1.1604389
1.1581769
1.1590437
1.161637
1.1625478
1.1586621
1.1493301
1.1369215
1.1253967
1.117885
1.1149101
1.1144223
1.113547
1.1107917
1.1071435
1.1052575
1.1073121
1.1131063
1.1198329
1.1237388
1.122528
1.1168536
1.109896
1.105317
1.1049472
1.1077254
1.1105841
1.1106806
1.1074471
1.1030113
1.1006466
1.1023262
1.1071192
1.111589
1.1119866
1.106876
1.098507
1.0919131
1.0920312
1.1004356
1.1136281
1.1240209
1.1233388
1.1070317
1.0778801
1.0472293
1.0327884
1.0524999
1.1149513
1.208575
1.2941271
1.3062826
1.1687161
0.82155
0.25186244
-0.4881919
-1.2890211
-2.0180964
-2.566434
-2.8842359
-2.9894872
-2.9492218
-2.8465834
-2.7502651
-2.697556
-2.6936185
-2.7224956
-2.7619603
-2.795047
-2.814681
-2.8219857
-2.8215408
-2.8172765
-2.8111598
-2.80443
-2.7993603
-2.7994218
-2.8072138
-2.821479
-2.8356588
-2.8398948
-2.8263972
-2.7957535
-2.7605646
-2.7433379
-2.767615
-2.8442092
-2.9573367
-3.0573075
-3.0661602
-2.899151
-2.4979844
-1.863029
-1.0669923
-0.23808636
0.48315033
0.9928321
1.2546023
1.300663
1.2082194
1.0663214
0.9473558
0.8910497
0.90240073
0.96069074
1.0343711
1.0957804
1.1305667
1.1393211
1.1324508
1.1221789
1.1162096
1.115799
1.1179904
1.1195431
1.1196842
1.120153
1.123082
1.1287249
1.1349243
1.1386725
1.1384058
1.1351765
1.1318538
1.1310465
1.1332886
1.136732
1.1385126
1.1367924
1.1319569
1.1260686
1.1211026
1.1175046
1.1142414
1.1101775
1.1055657
1.1024318
1.1034768
1.1101714
1.1213806
1.1336151
1.1429082
1.147122
1.1471272
1.1460501
1.1470965
1.1514447
1.1576607
1.1629782
1.1654137
1.1651481
1.1642605
1.1651366
1.168744
1.1740068
1.1787109
1.1812387
1.1817564
1.1818932
1.1831625
1.1854222
1.186705
1.1847351
1.1790966
1.1723311
1.1688161
1.1717926
1.1803429
1.1885084
1.1877319
1.171905
1.1425815
1.1114014
1.0976584
1.1207019
1.1888918
1.2886504
1.378374
1.3919703
1.2548071
0.9101556
0.3474579
-0.38149077
-1.1705458
-1.892238
-2.4417362
-2.770339
-2.8935757
-2.8739276
-2.790328
-2.7094307
-2.6688054
-2.6748662
-2.712297
-2.7584352
-2.7957687
-2.818002
-2.8288734
-2.8363447
-2.8464484
-2.8603616
-2.8756828
-2.8900406
-2.9038413
-2.9198768
-2.9399986
-2.961483
-2.9764416
-2.9759126
-2.9571044
-2.9295735
-2.915635
-2.942369
-3.0265102
-3.1576846
-3.288035
-3.3358505
-3.2067714
-2.8287632
-2.1882174
-1.3489821
-0.44014117
0.38635105
1.0089157
1.3741549
1.5030891
1.4685732
1.3599422
1.2520152
1.1881646
1.178511
1.208866
1.2543309
1.2921245
1.3098866
1.3077439
1.2946801
1.281844
1.2764297
1.2789867
1.2848892
1.2884427
1.2868614
1.2816975
1.2771388
1.276742
1.2810448
1.2875409
1.2926954
1.2944282
1.2933828
1.2921993
1.2933828
1.2973765
1.3023038
1.3055413
1.3058444
1.3043344
1.3035846
1.3055292
1.3098177
1.3138888
1.3147553
1.3112124
1.3048408
1.2990298
1.2966965
1.2983488
1.3019159
1.3044815
1.3046262
1.3035704
1.3041872
1.308615
1.3162876
1.3238837
1.3273227
1.3245463
1.3172543
1.3103385
1.3092282
1.3168274
1.3320404
1.3507386
1.3683199
1.3820162
1.391486
1.3975751
1.4004745
1.3989198
1.3912352
1.3775086
1.3611003
1.347933
1.343488
1.3491396
1.3602078
1.3673716
1.3613181
1.3386776
1.3063518
1.2816142
1.2866424
1.3380076
1.4337918
1.543044
1.6034871
1.532498
1.2521936
0.72210854
-0.03434766
-0.9250146
-1.8128344
-2.5605204
-3.075846
-3.336797
-3.387405
-3.3104305
-3.192435
-3.0964112
-3.0501885
-3.0505083
-3.0767474
-3.1061938
-3.124379
-3.127869
-3.1209269
-3.1098635
-3.098878
-3.0892289
-3.0810003
-3.075085
-3.0732448
-3.0759315
-3.079666
-3.0767083
-3.058623
-3.0227177
-2.9778106
-2.9449747
-2.950465
-3.0115397
-3.1200106
-3.2312713
-3.266641
-3.1332023
-2.7579997
-2.1243927
-1.2923491
-0.3878942
0.43809015
1.0631033
1.431839
1.5636454
1.5306079
1.422127
1.3134804
1.2485373
1.2378647
1.2677191
1.3136032
1.3528725
1.3727949
1.3726187
1.3603022
1.3463467
1.338037
1.3367317
1.3389297
1.3397634
1.3364778
1.3298492
1.3230407
1.3190684
1.31879
1.3206939
1.3223765
1.3224404
1.3213953
1.3209958
1.3226608
1.3262655
1.3302233
1.3327191
1.3330772
1.3321695
1.3315295
1.3318689
1.3322039
1.3303565
1.324543
1.3149034
1.3038038
1.2945933
1.2896142
1.288857
1.2902148
1.2911326
1.2904209
1.2889082
1.2884935
1.2903726
1.2938285
1.2965236
1.2960844
1.2918043
1.2852073
1.2790394
1.2753762
1.2741853
1.2733716
1.2702762
1.2635466
1.2540444
1.2441733
1.2361535
1.2305206
1.2259482
1.2204896
1.2132521
1.2051842
1.1983452
1.1942036
1.1923139
1.190524
1.1867515
1.1810801
1.1764703
1.1771727
1.1855127
1.1990349
1.2101728
1.2094069
1.1908605
1.157587
1.1234275
1.1094613
1.1351033
1.2061023
1.3035542
1.3791045
1.3611066
1.1737907
0.7660049
0.13909157
-0.6407318
-1.4561032
-2.1760373
-2.7006059
-2.99133
-3.0745285
-3.0201857
-2.909923
-2.809043
-2.7517762
-2.7412767
-2.7602177
-2.7852576
-2.798982
-2.7954097
-2.778611
-2.7570345
-2.7375793
-2.7226527
-2.7110372
-2.7008646
-2.6919553
-2.6856506
-2.682351
-2.6789365
-2.668673
-2.6447575
-2.6060882
-2.5618303
-2.5310552
-2.535482
-2.5866337
-2.6722026
-2.748548
-2.7457042
-2.5873888
-2.2215672
-1.6493727
-0.9365501
-0.19731385
0.444835
0.90052074
1.1408696
1.1967957
1.1365019
1.0352924
0.9510374
0.9123151
0.9195129
0.9547314
0.9946748
1.0214034
1.0279292
1.0180758
1.0020262
0.9902291
0.98855984
0.99667066
1.0096891
1.0217378
1.0290375
1.0309635
1.0289347
1.024398
1.0175465
1.0076141
0.9942976
0.97898364
0.96462476
0.9542024
0.94888467
0.9472778
0.9463791
0.94359994
0.93844396
0.93266577
0.9288327
0.9283768
0.93056697
0.9331195
0.93395364
0.9327628
0.9312076
0.9315695
0.9348652
0.93983704
0.9435999
0.9435202
0.9390072
0.93194336
0.92544043
0.9218018
0.92112255
0.92148143
0.9205281
0.9172863
0.91287106
0.90963113
0.9093781
0.91201925
0.91560507
0.91778624
0.91764677
0.9165436
0.91722536
0.921771
0.92987376
0.9388143
0.9451723
0.94699514
0.9448652
0.9412015
0.93840015
0.9371874
0.9363544
0.9340084
0.92932683
0.9234161
0.91857404
0.9164807
0.9167027
0.91675705
0.9138839
0.9073459
0.8995132
0.8946877
0.8961123
0.9029511
0.90938216
0.9070207
0.8900448
0.8605957
0.83127207
0.82226586
0.852652
0.92793506
1.0283885
1.104088
1.0818621
0.8858891
0.46739542
-0.16802669
-0.9500367
-1.7593949
-2.4662662
-2.974001
-3.2478168
-3.316767
-3.2520912
-3.1353705
-3.0310273
-2.9720387
-2.9603138
-2.9775484
-2.999755
-3.0091014
-2.9993596
-2.9746945
-2.9442756
-2.916363
-2.8948836
-2.8795118
-2.8680477
-2.8587534
-2.850844
-2.843033
-2.831781
-2.8114436
-2.777368
-2.7307785
-2.6824284
-2.65163
-2.6588132
-2.7128634
-2.7979934
-2.867134
-2.8482654
-2.6659117
-2.2725904
-1.6770383
-0.95296776
-0.21915141
0.4024811
0.8299124
1.0438274
1.0821297
1.0143964
0.9120888
0.8273128
0.784843
0.78524566
0.8139509
0.85140556
0.8811646
0.8944939
0.89126647
0.87782365
0.8631846
0.8552677
0.8584272
0.87281716
0.89529747
0.9210883
0.9453352
0.9641299
0.9750257
0.9772999
0.9720858
0.96224576
0.95175743
0.94454277
0.9430459
0.94717073
0.9541629
0.9596414
0.9594615
0.9516446
0.93745863
0.9210453
0.9076849
0.901493
0.9036593
0.91209716
0.9226532
0.9312013
0.93548936
0.9358079
0.9342681
0.9332776
0.93419707
0.9369333
0.9405301
0.9441619
0.9477538
0.95182467
0.9567617
0.96216214
0.9668127
0.9693838
0.96936333
0.96755075
0.96571326
0.9655689
0.967732
0.9713084
0.97440875
0.97526485
0.97325736
0.9692415
0.96501315
0.96230453
0.961961
0.96375585
0.96682775
0.970313
0.9736698
0.9764924
0.97808564
0.97733974
0.9732733
0.9660967
0.9581372
0.9537987
0.95809996
0.9741343
1.0005945
1.030786
1.0541011
1.0599099
1.042678
1.0062966
0.9654578
0.9424488
0.9589271
1.0240457
1.1225457
1.2083181
1.2091526
1.045656
0.6611674
0.05170267
-0.71966964
-1.5355412
-2.2620928
-2.795357
-3.0934849
-3.1812696
-3.1289897
-3.0194287
-2.9188364
-2.8617103
-2.8511157
-2.8699598
-2.895811
-2.912496
-2.9147959
-2.9064474
-2.8945558
-2.8843775
-2.8771884
-2.871538
-2.8660297
-2.861129
-2.858527
-2.8585737
-2.857933
-2.849846
-2.8278754
-2.791612
-2.7509775
-2.7256043
-2.7374704
-2.7980695
-2.8947375
-2.9828994
-2.9906232
-2.8382845
-2.4694588
-1.8812653
-1.1379963
-0.35662445
0.33274087
0.8328942
1.1092498
1.1909803
1.1479435
1.0584539
0.98295724
0.9515932
0.96565694
1.0079625
1.0557631
1.0911375
1.1061934
1.1029114
1.0892857
1.0743141
1.0642136
1.0611228
1.0640771
1.0709853
1.0801345
1.0904409
1.1007465
1.1091818
1.113431
1.111882
1.1048502
1.094915
1.0859501
1.0813186
1.0823014
1.0876819
1.0946497
1.100376
1.103304
1.1034926
1.1020348
1.1001168
1.0983431
1.0966164
1.0944983
1.0917517
1.0886941
1.0861311
1.084969
1.0858171
1.0888128
1.0936878
1.0999304
1.1069069
1.1139113
1.1202344
1.1253257
1.1289744
1.1313498
1.1328123
1.1336001
1.1336251
1.1325737
1.1302875
1.1271343
1.12403
1.1220315
1.1217633
1.1230817
1.1252134
1.1272689
1.1287439
1.1296303
1.1300676
1.1298417
1.1281955
1.1242234
1.1176733
1.1095743
1.1021038
1.0976032
1.0973113
1.1006792
1.1058224
1.1109117
1.1155804
1.1212637
1.1300085
1.1423209
1.1554021
1.1631603
1.1586443
1.1382724
1.1060116
1.0750955
1.0652422
1.0946516
1.1682132
1.2659082
1.3373581
1.3083538
1.1017185
0.66799974
0.013807891
-0.7876392
-1.6133722
-2.3305867
-2.8416462
-3.1129198
-3.175913
-3.1044095
-2.9817193
-2.872918
-2.8108652
-2.7971036
-2.8130927
-2.834819
-2.844447
-2.8354716
-2.8113563
-2.7803552
-2.7501671
-2.7250805
-2.7061486
-2.6929748
-2.6850555
-2.6814573
-2.6792378
-2.6723652
-2.6530123
-2.6156802
-2.5624819
-2.5063949
-2.469337
-2.473693
-2.5289986
-2.6187673
-2.6943119
-2.6816173
-2.5031765
-2.1096344
-1.50838
-0.77294874
-0.023623386
0.6147043
1.0567219
1.280854
1.3245286
1.2584044
1.1557065
1.0701121
1.0273738
1.0285869
1.0596865
1.1019152
1.1398084
1.165216
1.1773782
1.1801677
1.1783334
1.1746782
1.1693279
1.1609885
1.1490338
1.1349214
1.1219673
1.1136414
1.1115552
1.1144916
1.1190993
1.1218004
1.1207197
1.1164938
1.1115803
1.1086239
1.1089413
1.111993
1.116044
1.1194763
1.1218393
1.1239662
1.1271679
1.132122
1.1382183
1.1437837
1.1470435
1.1471989
1.1449116
1.1418611
1.1396562
1.1388185
1.1385162
1.1372274
1.1338792
1.1286747
1.1230477
1.1187702
1.1168188
1.1167679
1.1171414
1.116501
1.1145335
1.1123716
1.1118858
1.1143796
1.119552
1.125455
1.1295419
1.1301743
1.1276315
1.1239543
1.1216881
1.1223137
1.1253682
1.1288089
1.1303527
1.1288913
1.125043
1.12051
1.116742
1.113884
1.1107676
1.1059433
1.0989872
1.0910752
1.0843066
1.080199
1.0784478
1.0769343
1.0731267
1.0660328
1.0573652
1.0509379
1.0503938
1.0564982
1.0656611
1.0708199
1.0646397
1.0437919
1.0124042
0.9828817
0.9730029
0.99916345
1.0668266
1.1607687
1.2393352
1.2376664
1.0832793
0.7224225
0.1482362
-0.58376175
-1.3650483
-2.0684624
-2.5925357
-2.8939645
-2.9936976
-2.9575727
-2.8646457
-2.7788062
-2.7336566
-2.7325144
-2.7591026
-2.7917538
-2.8146396
-2.8225083
-2.819018
-2.8114824
-2.8057714
-2.8040502
-2.8057303
-2.8098683
-2.816649
-2.8266919
-2.8388143
-2.8483138
-2.8478465
-2.831427
-2.7998588
-2.764386
-2.7454426
-2.7650661
-2.834342
-2.940223
-3.0380216
-3.0556686
-2.9127178
-2.5507927
-1.9642833
-1.2151966
-0.4201527
0.28826743
0.80782294
1.0977455
1.1820054
1.1283091
1.016945
0.913859
0.856107
0.850737
0.88338846
0.93095
0.9729613
0.99831235
1.0062604
1.0030205
0.9965525
0.9923074
0.99162734
0.99281704
0.9935196
0.99260646
0.9904653
0.98786914
0.9846487
0.979413
0.97062206
0.9581933
0.94435024
0.9329086
0.9273163
0.9287188
0.93537533
0.9438236
0.9509822
0.95576185
0.9591345
0.9627289
0.96708655
0.97093207
0.9719947
0.9687209
0.9615608
0.95285946
0.94543874
0.9409203
0.9390033
0.9381671
0.93721724
0.9364999
0.93784493
0.94320625
0.9529489
0.96507543
0.97606224
0.9828037
0.9843258
0.9820782
0.97862726
0.97571033
0.97305685
0.96880597
0.9611692
0.9500711
0.9375384
0.9265358
0.91908145
0.91499704
0.91219795
0.90831614
0.90247715
0.89594555
0.8911832
0.8900147
0.8922402
0.8957195
0.89787555
0.89751595
0.89563394
0.89461035
0.89641106
0.9011062
0.90681195
0.9111126
0.91288406
0.913078
0.9137766
0.9161952
0.9192484
0.91999185
0.915823
0.9068627
0.896632
0.89023393
0.8909286
0.897169
0.9021747
0.89691734
0.875519
0.8405098
0.80497366
0.7895235
0.813862
0.88486385
0.9851592
1.0675638
1.0605484
0.8872296
0.49452162
-0.11827415
-0.88645625
-1.6933235
-2.4076967
-2.9288664
-3.217404
-3.2989304
-3.2432427
-3.1323054
-3.0320814
-2.977431
-2.9717615
-2.9974322
-3.0302553
-3.0516446
-3.0544086
-3.0416403
-3.021274
-3.0003297
-2.9820566
-2.9667096
-2.9541662
-2.945675
-2.9430864
-2.946099
-2.949898
-2.9457784
-2.9255848
-2.888126
-2.8438046
-2.8137012
-2.8213875
-2.8791585
-2.9738233
-3.059169
-3.0614696
-2.9004266
-2.5209346
-1.9232304
-1.1752331
-0.39659047
0.28116393
0.7594217
1.0008887
1.0314343
0.9203295
0.7518506
0.59999835
0.51245415
0.50503814
0.56540954
0.663451
0.76470053
0.8424909
0.88494825
0.8951094
0.88540953
0.87004405
0.85900235
0.85596716
0.8598677
0.8680127
0.8783889
0.8899594
0.9015841
0.9111324
0.91591847
0.9142788
0.9070124
0.8973589
0.8892676
0.885069
0.8841861
0.88381726
0.8811372
0.8754819
0.8689517
0.8649612
0.8657753
0.870848
0.8771707
0.88131315
0.8816491
0.8792556
0.8769943
0.8774848
0.881337
0.8868166
0.8911592
0.89257854
0.8914709
0.8899104
0.88987327
0.8916179
0.89349425
0.893321
0.89025366
0.8856735
0.88234687
0.88242155
0.88575566
0.8898745
0.89166456
0.88962805
0.8851157
0.8816771
0.8829248
0.89022654
0.90166265
0.91299516
0.9201653
0.9217152
0.9194541
0.91692495
0.9168498
0.9194324
0.9226759
0.9243387
0.92394143
0.9232378
0.9247733
0.9296518
0.9362614
0.941024
0.9407366
0.93485177
0.9260047
0.9183233
0.9146727
0.9148053
0.9158005
0.91458946
0.9108231
0.90793407
0.9113245
0.9245392
0.9457793
0.9671844
0.9779139
0.96996546
0.9439656
0.91174096
0.8935605
0.9099862
0.9704049
1.0619808
1.1437352
1.1503717
1.0084468
0.66273785
0.10399453
-0.61561984
-1.3909122
-2.0962663
-2.6286469
-2.9403527
-3.0470934
-3.0112383
-2.9118755
-2.8162978
-2.7630315
-2.7593844
-2.7904449
-2.833108
-2.8684292
-2.887954
-2.893241
-2.890913
-2.8870804
-2.8844037
-2.8827977
-2.8821883
-2.8844912
-2.8928328
-2.9083464
-2.9270592
-2.9399023
-2.9371426
-2.9155288
-2.8840585
-2.8639894
-2.8808417
-2.9498653
-3.0603156
-3.166208
-3.1906674
-3.0469089
-2.6715868
-2.0578527
-1.2709517
-0.4342189
0.31161493
0.8569049
1.1559255
1.231177
1.1528374
1.0074934
0.87026936
0.78813326
0.77562636
0.82051545
0.89544094
0.97118366
1.0272657
1.0567384
1.064452
1.0609648
1.0558969
1.0540375
1.055372
1.0578588
1.0605011
1.0645876
1.0725387
1.0855554
1.1020185
1.1179068
1.1289905
1.1332638
1.1319021
1.1280806
1.1245562
1.121807
1.1180731
1.1112273
1.101053
1.09019
1.0829511
1.0827596
1.0899608
1.1015044
1.112732
1.1200893
1.1229669
1.1234889
1.1245098
1.1273228
1.1307265
1.132072
1.129476
1.1235492
1.1173244
1.1143773
1.1164578
1.1223204
1.1285908
1.1320668
1.1318392
1.1297518
1.128922
1.1314191
1.1367794
1.1423852
1.1453842
1.1447288
1.1418549
1.1395404
1.1398245
1.1425409
1.1455482
1.1464834
1.1447332
1.1421285
1.1417848
1.1458637
1.1538482
1.1626197
1.1683811
1.169146
1.1660672
1.1626511
1.1623818
1.1663996
1.1728346
1.1782267
1.1799911
1.1781483
1.175079
1.1735247
1.1743584
1.1758441
1.175039
1.1704003
1.1636621
1.159382
1.1620747
1.1725699
1.1860069
1.1931667
1.1850443
1.1586958
1.1214465
1.0908809
1.0893548
1.1336193
1.2222112
1.3252109
1.3820922
1.3124636
1.0404176
0.5261563
-0.20838843
-1.0746955
-1.9404643
-2.6725845
-3.1809046
-3.4428082
-3.499679
-3.43101
-3.3208718
-3.2312076
-3.1899664
-3.1943367
-3.2237449
-3.255064
-3.2735393
-3.2762516
-3.2689075
-3.2595832
-3.2535994
-3.251988
-3.2532806
-3.2562923
-3.2613218
-3.268764
-3.2764041
-3.2781067
-3.2660928
-3.2366576
-3.196375
-3.1642904
-3.1664908
-3.2226894
-3.3290052
-3.4448707
-3.4929554
-3.3776052
-3.019545
-2.3946595
-1.5578123
-0.63552094
0.21401364
0.85615766
1.2237077
1.3302834
1.2520603
1.0914457
0.9403213
0.85565954
0.8524808
0.9121269
0.99917024
1.0788977
1.1292841
1.1450899
1.1349993
1.1146036
1.0986418
1.0954711
1.1054121
1.1228337
1.1402831
1.1523255
1.1573222
1.1567999
1.1534333
1.1491821
1.1446329
1.1395627
1.133924
1.128341
1.1237788
1.1207708
1.1189086
1.1170447
1.1140747
1.1097254
1.1047696
1.1005245
1.0980042
1.0973123
1.0976673
1.0979949
1.097656
1.096813
1.0962256
1.0966692
1.0983926
1.1009637
1.1035651
1.1055077
1.1066203
1.1072923
1.1082008
1.1099372
1.1127615
1.1165913
1.1211624
1.126208
1.1315287
1.1369435
1.142191
1.14687
1.150459
1.1524149
1.152304
1.1499175
1.1453301
1.1388766
1.131037
1.1222801
1.1129587
1.1033278
1.0936751
1.0844716
1.0764121
1.0702566
1.0665201
1.065206
1.0657971
1.0675528
1.0699382
1.072866
1.0765175
1.0808146
1.0849314
1.0872849
1.0861572
1.0806714
1.0715382
1.0610102
1.0519228
1.0463153
1.0444771
1.0450532
1.0462174
1.047223
1.0492868
1.0550246
1.0664701
1.0826848
1.098477
1.1054392
1.0954272
1.065294
1.0208067
0.97755563
0.95730203
0.97946185
1.0492681
1.1464175
1.2198906
1.1946232
0.99236685
0.56236225
-0.090141855
-0.89292854
-1.723326
-2.4482596
-2.969887
-3.2550428
-3.3363063
-3.288294
-3.1939034
-3.1163056
-3.0858305
-3.1022706
-3.1470377
-3.1975663
-3.237829
-3.2621942
-3.27336
-3.2774396
-3.2796946
-3.2830222
-3.288966
-3.2992923
-3.3160963
-3.3399062
-3.3672237
-3.389963
-3.3985043
-3.3878038
-3.3635254
-3.3440468
-3.3551848
-3.4174683
-3.5297158
-3.6560507
-3.7244985
-3.6426635
-3.329295
-2.7515013
-1.950323
-1.0385339
-0.16681334
0.5278759
0.96710974
1.1489676
1.1350415
1.0177246
0.8848743
0.795304
0.7706298
0.80155224
0.86215574
0.9249533
0.97140616
0.9957759
1.0029272
1.0025275
1.0028718
1.0071505
1.0134192
1.0175118
1.0166911
1.0117041
1.006149
1.003867
1.0062908
1.0115463
1.0157983
1.0158238
1.0110422
1.0036978
0.99720055
0.9938639
0.9935935
0.9943529
0.9939869
0.99201965
0.9900422
0.99039763
0.99425733
1.0006441
1.0071046
1.0114164
1.0130422
1.013346
1.0144612
1.0176015
1.0220165
1.0253997
1.0255302
1.0219796
1.0165946
1.0123396
1.0112777
1.0131283
1.0154403
1.0152905
1.0113363
1.0047908
0.99863356
0.99561733
0.99646425
0.9994868
1.0018661
1.0016695
0.99917203
0.99653685
0.99610144
0.99854547
1.002306
1.0046856
1.0038612
1.000325
0.99667627
0.9958519
0.9990185
1.0046219
1.0093114
1.010156
1.0066409
1.0010506
0.9969415
0.9967401
1.0001453
1.0044718
1.0066751
1.00555
1.0024949
1.000353
1.0012614
1.0051059
1.009677
1.0123838
1.0122496
1.0106982
1.0104985
1.0135889
1.019367
1.0247853
1.0263604
1.0228001
1.0163547
1.0117009
1.0127839
1.0195025
1.0264475
1.0248598
1.0072225
0.9724515
0.92917114
0.89510334
0.8917023
0.9345266
1.0214611
1.122808
1.1787789
1.1095392
0.8391092
0.32714456
-0.4048681
-1.2682718
-2.130088
-2.8565352
-3.357465
-3.611237
-3.6608434
-3.5871856
-3.4747074
-3.3843942
-3.3423955
-3.344261
-3.36882
-3.3935702
-3.40498
-3.4009795
-3.3871226
-3.3705077
-3.3555086
-3.3431473
-3.333143
-3.326057
-3.3233745
-3.325305
-3.3281806
-3.3241553
-3.3047297
-3.2670658
-3.2196438
-3.1830387
-3.1830716
-3.2369475
-3.3370183
-3.4397862
-3.4680479
-3.3305037
-2.955728
-2.328173
-1.5079736
-0.6201179
0.18642153
0.79107416
1.13981
1.2526782
1.2025245
1.0799953
0.9617749
0.8924656
0.8821341
0.91553384
0.96642804
1.0108277
1.0352113
1.0384907
1.0286952
1.0168473
1.0111345
1.0139216
1.0224409
1.0320132
1.0394752
1.0447601
1.0500364
1.057473
1.0674326
1.0783142
1.087907
1.0950404
1.1002009
1.1046854
1.1090281
1.1119981
1.1110173
1.1037838
1.0899888
1.0719324
1.0536
1.0388243
1.0297245
1.0263118
1.0272727
1.031163
1.0370972
1.0445286
1.0524869
1.0591199
1.0621444
1.0600443
1.0531813
1.043944
1.0356672
1.0308868
1.030025
1.031401
1.0325834
1.0321456
1.0305899
1.029812
1.0315528
1.0360231
1.0417453
1.0467287
1.0500711
1.052714
1.0566803
1.06328
1.0716138
1.0785954
1.0806859
1.076292
1.0672141
1.0580543
1.0538276
1.0572376
1.0673233
1.0802611
1.091693
1.0990433
1.1024247
1.103767
1.1049948
1.1066521
1.1079066
1.1077313
1.1061535
1.104467
1.1042045
1.1057172
1.1075863
1.1074806
1.1039342
1.0977232
1.0917144
1.0891465
1.0915003
1.0974962
1.104023
1.1084155
1.110449
1.1125034
1.1175665
1.1262791
1.1350592
1.1369002
1.1249961
1.0976921
1.0622648
1.0351185
1.0369998
1.0834705
1.1728874
1.2762264
1.3344666
1.2685919
1.0032959
0.49835733
-0.22551598
-1.0812896
-1.9378669
-2.6627622
-3.1659024
-3.4244568
-3.4795833
-3.410707
-3.3019931
-3.2155051
-3.1791248
-3.1896005
-3.2254791
-3.2624118
-3.2843237
-3.287214
-3.27631
-3.2601073
-3.2453458
-3.2352371
-3.2306132
-3.23181
-3.2391021
-3.2511415
-3.26293
-3.2658243
-3.2511473
-3.2164984
-3.1713786
-3.137827
-3.143238
-3.2059832
-3.3186297
-3.4366245
-3.4805036
-3.3559554
-2.9885008
-2.3603358
-1.5309912
-0.6271137
0.1984492
0.82001114
1.1788285
1.2921954
1.2329127
1.0940828
0.95660275
0.87022084
0.850193
0.88521266
0.9500828
1.0178497
1.0686109
1.09391
1.0964341
1.0857745
1.0724548
1.0631415
1.0591013
1.0579791
1.0570927
1.0558199
1.0556288
1.0581721
1.0632509
1.0683696
1.0702659
1.0672765
1.0607725
1.0545441
1.052466
1.0560031
1.0632548
1.0701988
1.0733112
1.0717984
1.0679479
1.0654213
1.0667148
1.0715096
1.076969
1.0797224
1.0781401
1.0733016
1.0680141
1.0646818
1.0636301
1.0630896
1.0607752
1.0558445
1.0497651
1.0454288
1.0451368
1.0489043
1.0543122
1.0580511
1.0581037
1.0550561
1.0516181
1.0506834
1.05328
1.057841
1.061291
1.0611861
1.0573959
1.0521414
1.0483588
1.0475609
1.0487276
1.0490285
1.0458937
1.0389727
1.0305669
1.0241745
1.0221593
1.0242046
1.0276524
1.0294772
1.0284755
1.0260915
1.0252795
1.028221
1.0345341
1.041257
1.0446411
1.0425296
1.0356828
1.0271376
1.020068
1.0156722
1.0125682
1.0081053
1.0006106
0.9908962
0.98184866
0.97634387
0.9750196
0.9756309
0.9746239
0.9699251
0.9629295
0.95806104
0.95987487
0.9693948
0.9820868
0.9891014
0.9816397
0.9564965
0.91999483
0.88801736
0.8812567
0.9163976
0.99534833
1.095903
1.1682142
1.141445
0.9426764
0.52477634
-0.10703249
-0.8841263
-1.688954
-2.3923728
-2.8975062
-3.1692538
-3.2369587
-3.1726816
-3.0586376
-2.9590795
-2.9060721
-2.900541
-2.9238362
-2.9524922
-2.9696648
-2.9697444
-2.9563465
-2.9366984
-2.9164286
-2.8975644
-2.8799486
-2.8639393
-2.8516898
-2.8457177
-2.84576
-2.8465536
-2.838986
-2.8150313
-2.7742057
-2.7276938
-2.6967075
-2.7038956
-2.7598753
-2.8499663
-2.927734
-2.9210637
-2.7527738
-2.371312
-1.7796618
-1.0468214
-0.29166657
0.35639
0.8013037
1.0080549
1.0045377
0.8625854
0.6702262
0.5058909
0.4205815
0.43031928
0.5189978
0.64974505
0.7806709
0.8794106
0.93145424
0.94016415
0.9202722
0.8892218
0.86059517
0.84162
0.834148
0.8370175
0.8478447
0.8635522
0.88026816
0.8936717
0.9002635
0.89901245
0.8921822
0.8844276
0.88038146
0.88212055
0.8881405
0.8945211
0.8975092
0.8958147
0.8911405
0.886666
0.8845908
0.8844916
0.883696
0.8794249
0.8710908
0.86096394
0.852684
0.84877336
0.84900784
0.85076
0.8509606
0.8482349
0.84372216
0.84006
0.83932835
0.8414791
0.84439254
0.84548974
0.8437039
0.8403526
0.8382553
0.839721
0.84487355
0.85154283
0.85680795
0.8590692
0.85913604
0.85952115
0.8624417
0.86798966
0.8738351
0.8767243
0.8747353
0.86868495
0.86166376
0.85699224
0.85602486
0.8573507
0.8579512
0.8554733
0.84997404
0.8438794
0.8401988
0.84030575
0.8429118
0.84500337
0.8440814
0.840073
0.83549184
0.83368844
0.8364335
0.8425867
0.8488393
0.8520187
0.8512902
0.8486329
0.84722614
0.8489433
0.8528555
0.85596335
0.8557448
0.8526726
0.85067767
0.85483456
0.86749256
0.8853385
0.8996148
0.900042
0.88084525
0.8458577
0.8097275
0.7936861
0.8163745
0.88218516
0.9710856
1.0347048
1.0030203
0.8033923
0.38838068
-0.23789339
-1.0087873
-1.8092664
-2.512373
-3.0220134
-3.3018544
-3.378375
-3.3204715
-3.2084126
-3.106449
-3.048087
-3.0358894
-3.0520477
-3.0731025
-3.0821636
-3.074377
-3.0550585
-3.033338
-3.0157762
-3.003537
-2.9939158
-2.984128
-2.9740822
-2.9659827
-2.9611456
-2.9566815
-2.9451957
-2.9188356
-2.8759809
-2.8265128
-2.791415
-2.7946415
-2.8489676
-2.9412994
-3.0249662
-3.0255694
-2.8625927
-2.481742
-1.8851374
-1.1429745
-0.37633392
0.2839936
0.7431415
0.9702401
0.99835634
0.90144277
0.7626804
0.6482234
0.5938968
0.604997
0.6646722
0.745587
0.8211235
0.87373954
0.8986555
0.9020937
0.89545596
0.8887184
0.8863913
0.8875438
0.8889171
0.88852787
0.88728887
0.8878708
0.8920904
0.8990449
0.9054623
0.90798885
0.90569013
0.9008811
0.8976283
0.8989906
0.90497875
0.9126603
0.91829425
0.91995746
0.9187939
0.9180134
0.9203997
0.92615956
0.9326699
0.9363086
0.9350754
0.9301358
0.9251684
0.9239527
0.9278973
0.9352368
0.9424377
0.9467946
0.94836193
0.9498316
0.9544421
0.963419
0.97477573
0.98434114
0.9883406
0.9857882
0.9790671
0.97232467
0.9688139
0.96898466
0.970523
0.97016317
0.9659308
0.95827895
0.9494334
0.9415668
0.93523186
0.92922676
0.9219564
0.9132007
0.9048518
0.899929
0.9004911
0.90597075
0.91324586
0.9185717
0.9201352
0.9194396
0.920443
0.92690897
0.9397084
0.9559087
0.9703284
0.9785827
0.9796272
0.9761356
0.972527
0.97204685
0.9748941
0.9785925
0.98019034
0.9785795
0.97518814
0.97257626
0.9720916
0.9724906
0.9707353
0.9645323
0.95476663
0.9458411
0.9432518
0.9496667
0.96200615
0.971736
0.96888256
0.9481233
0.9138885
0.88148075
0.87264
0.9060149
0.9850438
1.0874515
1.1615126
1.1336628
0.9290033
0.5004194
-0.14475523
-0.93479556
-1.7495624
-2.4587152
-2.9654098
-3.2350857
-3.297646
-3.225821
-3.1029112
-2.9945757
-2.933958
-2.9220276
-2.9390254
-2.9598694
-2.9666038
-2.9538214
-2.926839
-2.8955333
-2.8680058
-2.847351
-2.8323684
-2.8205447
-2.8105614
-2.802401
-2.7952425
-2.785245
-2.7657516
-2.7309384
-2.6814187
-2.6283505
-2.5924072
-2.5958095
-2.6489534
-2.736689
-2.811389
-2.7992284
-2.6219003
-2.2286558
-1.6256841
-0.8865566
-0.13400362
0.5013726
0.92578965
1.1093162
1.0861007
0.9333256
0.7416373
0.58836967
0.5199963
0.54619646
0.64516854
0.7772387
0.901517
0.9896248
1.0321281
1.0366473
1.0200936
0.99946135
0.98533976
0.9802215
0.9810319
0.9833872
0.98481566
0.985502
0.98698986
0.9904028
0.9955971
1.0016476
1.007992
1.0151095
1.0240612
1.0352074
1.0471493
1.0568526
1.0610905
1.0583593
1.0499841
1.0395985
1.0312517
1.027307
1.0274242
1.0292108
1.0300539
1.0288792
1.0266689
1.0254576
1.026596
1.0295477
1.0320886
1.0317674
1.0275898
1.0207213
1.013706
1.0087727
1.0064429
1.0054084
1.0037184
1.0003693
0.9961376
0.9930869
0.9931307
0.9966595
1.0021645
1.0071312
1.0096474
1.0096697
1.0090725
1.0103996
1.0151367
1.022667
1.0306213
1.0363859
1.038742
1.03852
1.0378507
1.0385734
1.0409312
1.0434637
1.0441549
1.0420034
1.0378712
1.0339864
1.0324339
1.0336943
1.0362672
1.0376676
1.0361274
1.0318215
1.0267571
1.0233945
1.0229582
1.0246185
1.0261265
1.0254713
1.0223906
1.0186391
1.0167832
1.018342
1.0225939
1.0269554
1.028775
1.027365
1.0248196
1.0248759
1.0303135
1.0403837
1.0499098
1.0509342
1.0365385
1.0053343
0.96461564
0.93033886
0.9228029
0.95803726
1.0365365
1.1330168
1.1926177
1.1389831
0.89630467
0.42036954
-0.27416283
-1.1058422
-1.9465158
-2.6634042
-3.1640446
-3.4230058
-3.4799092
-3.4137065
-3.3083034
-3.2250125
-3.190589
-3.2010736
-3.2354302
-3.2707477
-3.2925005
-3.2973638
-3.2900941
-3.2781687
-3.2676663
-3.261959
-3.2625365
-3.270067
-3.2841854
-3.3020213
-3.317021
-3.3200262
-3.303416
-3.2669785
-3.2223415
-3.192402
-3.2036636
-3.2723944
-3.38906
-3.508171
-3.5509346
-3.4248574
-3.0574594
-2.4323049
-1.6093909
-0.71510494
0.098402224
0.70639265
1.0512857
1.1518493
1.082727
0.93892664
0.80254227
0.7230465
0.7138853
0.76128143
0.83820087
0.9173481
0.9798313
1.018469
1.0361335
1.0408512
1.040462
1.0394207
1.0386521
1.0374585
1.0355699
1.0338733
1.0336342
1.0351716
1.0372311
1.0376267
1.0347078
1.0285856
1.0212313
1.0153494
1.0127794
1.013504
1.0158828
1.0178744
1.0183628
1.0177045
1.0171986
1.017953
1.0200111
1.0223542
1.0237143
1.0235415
1.0223964
1.0214844
1.0217001
1.0229151
1.0240489
1.0238607
1.021859
1.0186439
1.0154206
1.0130631
1.0114746
1.0097603
1.0070682
1.0034297
0.99995965
0.9982676
0.9994714
1.0034555
1.0088325
1.0135949
1.0160341
1.0154138
1.012107
1.007262
1.0022897
0.9984639
0.9967272
0.9976059
1.0011122
1.0066272
1.0128995
1.0183308
1.021571
1.0221698
1.0208648
1.0192341
1.0188447
1.0203968
1.0234162
1.0267112
1.029283
1.0310397
1.0327969
1.0355644
1.0396547
1.0442892
1.0480361
1.0497876
1.0495585
1.0484972
1.0480728
1.0490161
1.0507872
1.0519762
1.0513507
1.048758
1.045176
1.0418621
1.0392674
1.0366123
1.0325754
1.0266986
1.020453
1.0169743
1.0192854
1.0278859
1.0392165
1.0462816
1.0416961
1.0221101
0.99200636
0.9647091
0.9590657
0.991489
1.0647937
1.1574277
1.2185777
1.1747603
0.9503672
0.49793327
-0.17391367
-0.99036944
-1.8279136
-2.5547106
-3.0755253
-3.35972
-3.44109
-3.3938904
-3.299749
-3.2205858
-3.1860218
-3.1956937
-3.2312386
-3.270656
-3.2989197
-3.3118374
-3.313729
-3.3120189
-3.3124564
-3.3172786
-3.326252
-3.3386874
-3.3543198
-3.3722599
-3.3890996
-3.3983603
-3.392972
-3.3704731
-3.3382843
-3.315216
-3.3261788
-3.3898444
-3.5028374
-3.6273723
-3.690327
-3.5992062
-3.2739117
-2.6840894
-1.8744962
-0.9618634
-0.099488705
0.5757547
0.9884528
1.141532
1.1015882
0.96473104
0.82050884
0.72750366
0.70591486
0.74464124
0.81587887
0.8899882
0.9459768
0.9758937
0.98350006
0.9790636
0.97313607
0.9721187
0.97707427
0.9853992
0.9936465
0.99961346
1.0027071
1.0029671
1.0000225
0.9930801
0.9819979
0.9684834
0.9562254
0.9495178
0.9510814
0.9605008
0.97438174
0.9882186
0.99881923
1.0057535
1.0109323
1.0166895
1.0237588
1.0305552
1.034192
1.0324333
1.0251943
1.014599
1.003661
0.9946027
0.98799133
0.9831788
0.9795407
0.9774515
0.97817516
0.98270917
0.9904875
0.999055
1.0051545
1.0065866
1.003551
0.9984779
0.9944011
0.9929777
0.99352515
0.9937335
0.9915144
0.98664945
0.98106116
0.97751355
0.9776746
0.98093456
0.984846
0.9868823
0.98625904
0.9844988
0.9843093
0.98754543
0.9937004
1.0000163
1.0031564
1.0012804
0.9951203
0.98739535
0.98106086
0.9776279
0.97665113
0.9765862
0.97624487
0.97571385
0.97608674
0.9782967
0.982029
0.9856376
0.9872221
0.9860935
0.98347783
0.981815
0.9830592
0.9871852
0.9920445
0.99476886
0.99376017
0.989835
0.98567647
0.9839561
0.985464
0.9886426
0.99095476
0.9911333
0.9905697
0.9925697
0.9996646
1.0106406
1.0194316
1.0171614
0.9968814
0.958894
0.91386116
0.88147044
0.883904
0.9351861
1.0292908
1.1314356
1.1777686
1.08763
0.7885674
0.24738862
-0.5061402
-1.3772467
-2.2314975
-2.938664
-3.4152024
-3.6460757
-3.6784368
-3.5941567
-3.476346
-3.383962
-3.3416576
-3.3443005
-3.3703487
-3.3966153
-3.408428
-3.4025548
-3.3839722
-3.3600724
-3.3362136
-3.314639
-3.29609
-3.2817144
-3.2731283
-3.270333
-3.2693198
-3.2619996
-3.2399027
-3.200482
-3.1524918
-3.116307
-3.1166992
-3.1690645
-3.2639673
-3.357444
-3.3742812
-3.2277622
-2.8523626
-2.2374325
-1.4447061
-0.59640205
0.16487254
0.7262851
1.0404207
1.1311829
1.0720994
0.95182323
0.84340507
0.78751594
0.7912518
0.8379369
0.90110713
0.9568952
0.99153274
1.0030941
0.9984261
0.9875108
0.97810996
0.9730358
0.9708461
0.9688905
0.96643627
0.96574724
0.97047013
0.9825912
1.0002344
1.017977
1.0295943
1.031454
1.0243316
1.0125164
1.0009513
0.99242216
0.98660827
0.98138136
0.9751702
0.9685723
0.9640703
0.9641748
0.9694581
0.9779568
0.9863722
0.99218345
0.99513394
0.9970151
0.9999384
1.0044223
1.008761
1.0101794
1.0069362
0.9998
0.991757
0.9860902
0.984164
0.98447675
0.98368406
0.9789405
0.96998465
0.95953727
0.95171463
0.9495211
0.95311046
0.95994973
0.9666769
0.9712857
0.97410727
0.97698694
0.9813773
0.9868252
0.9909934
0.9912059
0.9863878
0.977968
0.9690639
0.9625268
0.9592683
0.95807797
0.9570277
0.95535314
0.9543233
0.95635694
0.9629844
0.9731843
0.9834217
0.9895165
0.989143
0.9832489
0.9753725
0.96928126
0.96654123
0.9657079
0.9637146
0.9584863
0.95090324
0.9446403
0.9438817
0.9504365
0.9622739
0.9745721
0.98263496
0.9847056
0.9827617
0.9807957
0.9818468
0.9859126
0.9902234
0.9916553
0.9894737
0.9862821
0.9862627
0.99172163
1.000284
1.0049107
0.9973228
0.9733583
0.9374721
0.90368634
0.8916053
0.91792446
0.98559326
1.0742111
1.1361729
1.1029273
0.9033384
0.49083367
-0.13072997
-0.8962676
-1.6932735
-2.3975246
-2.9149635
-3.209947
-3.3081722
-3.276687
-3.1935718
-3.1212623
-3.0922437
-3.1088428
-3.1534266
-3.2026336
-3.239311
-3.2580652
-3.2637675
-3.2656097
-3.2709088
-3.2820685
-3.297536
-3.3149276
-3.333388
-3.3532684
-3.3736036
-3.3899481
-3.3953438
-3.3851619
-3.3634953
-3.3465917
-3.3590844
-3.4218466
-3.5350163
-3.6639247
-3.7369604
-3.661439
-3.3562825
-2.7907276
-2.0110338
-1.1383431
-0.33320796
0.25984675
0.5627914
0.5873928
0.42344937
0.20009837
0.037991703
0.011046775
0.13034883
0.35287228
0.6078673
0.82784456
0.97143906
1.031265
1.027453
0.99294573
0.95814997
0.94082606
0.94370556
0.95880514
0.9749621
0.984478
0.98599887
0.9831604
0.9807831
0.98138124
0.98405164
0.98597944
0.9850356
0.98141277
0.9771984
0.97440916
0.97311205
0.97112596
0.9655858
0.9552393
0.94176096
0.92905927
0.9210015
0.9191098
0.92180043
0.9256527
0.9277749
0.9275868
0.9268036
0.92772865
0.93116397
0.9354866
0.9375835
0.9350004
0.9277834
0.9187011
0.91167456
0.9094818
0.912285
0.91794
0.9238009
0.92868286
0.9335608
0.9405185
0.95075196
0.96312654
0.9744072
0.98108774
0.98158365
0.9772712
0.9716576
0.9682633
0.9686552
0.9719038
0.9757063
0.97825253
0.9794408
0.9806041
0.98306286
0.9867024
0.9897251
0.9898165
0.98587656
0.97901255
0.9719998
0.9675238
0.96640974
0.9670961
0.9667815
0.9635224
0.95786035
0.95280683
0.95208365
0.9577046
0.9684673
0.98037064
0.9887314
0.9906747
0.9864678
0.97896
0.9716191
0.96650696
0.9634943
0.9611074
0.9582299
0.9552958
0.9540484
0.95607877
0.96132374
0.9677656
0.97268325
0.9745933
0.9744006
0.97476524
0.97799194
0.98391014
0.98936653
0.98993725
0.9829219
0.96964186
0.95531803
0.94626886
0.9459308
0.95212835
0.9575233
0.9534893
0.93571883
0.90874547
0.88678265
0.88952476
0.9332388
1.0192801
1.1239325
1.1947277
1.1580765
0.9399451
0.49513546
-0.16630639
-0.97005016
-1.7947071
-2.5108874
-3.0246751
-3.3051116
-3.3847065
-3.3366854
-3.2426882
-3.1654932
-3.135514
-3.1522408
-3.196006
-3.2428746
-3.2761035
-3.2906375
-3.290946
-3.2853868
-3.28104
-3.2815068
-3.2876832
-3.2996001
-3.3171687
-3.3390498
-3.360791
-3.3745208
-3.37188
-3.3497221
-3.315704
-3.289738
-3.2982605
-3.3612611
-3.4759715
-3.6044118
-3.6728237
-3.588151
-3.269996
-2.687557
-1.8844401
-0.9758431
-0.114952914
0.557705
0.95863676
1.0809816
0.9854838
0.7721296
0.5462752
0.39025527
0.3464321
0.41372272
0.5567539
0.7238639
0.8674104
0.9589716
0.99443215
0.988775
0.96489817
0.9425082
0.9317154
0.9327483
0.9400988
0.9477832
0.9527388
0.9551898
0.95684165
0.95879537
0.9606859
0.96130735
0.95986015
0.95667803
0.9529294
0.94971323
0.9474202
0.94590896
0.94528913
0.9465226
0.95114005
0.96007323
0.97238684
0.9849173
0.9933138
0.99407697
0.98645735
0.9730198
0.9584191
0.94705665
0.94102263
0.9395342
0.9400819
0.940383
0.9397824
0.93924767
0.94016856
0.9429874
0.9467079
0.94961697
0.9506446
0.9503134
0.9505249
0.9532895
0.95928895
0.96729904
0.9749015
0.9800144
0.9821872
0.98276037
0.9837903
0.98651433
0.99045205
0.9937786
0.9947014
0.9928467
0.9896429
0.98740363
0.9877583
0.99053806
0.9938975
0.99558485
0.9944805
0.99133694
0.98820674
0.98696154
0.98794687
0.9897266
0.990111
0.9877513
0.98315674
0.9783839
0.9755892
0.9754572
0.9766244
0.9765419
0.9732116
0.96659285
0.9586758
0.952158
0.9486612
0.94775254
0.94744384
0.9457687
0.9422619
0.93827146
0.93590957
0.9364373
0.93926144
0.94226134
0.9432302
0.94143677
0.9382024
0.93604964
0.9369926
0.94117945
0.94687897
0.95185304
0.9551325
0.9578578
0.96248466
0.97085273
0.98250055
0.9945185
1.0032119
1.0065609
1.0057908
1.0048137
1.0076535
1.0153304
1.0241904
1.0270014
1.0166789
0.9910388
0.95626086
0.9270295
0.9222961
0.95692384
1.0309832
1.1201326
1.171951
1.1132194
0.87039495
0.39920127
-0.28840113
-1.1150719
-1.9561257
-2.679968
-3.192616
-3.465194
-3.5334256
-3.4734294
-3.3683026
-3.280591
-3.2394423
-3.2431834
-3.272041
-3.3032708
-3.3220477
-3.3249545
-3.3169408
-3.3054183
-3.2955406
-3.2888997
-3.285159
-3.2843204
-3.2873178
-3.2943046
-3.302123
-3.3035927
-3.290465
-3.25946
-3.218193
-3.186618
-3.1907697
-3.2489502
-3.3548713
-3.4656994
-3.5034902
-3.3748121
-3.0055192
-2.3779583
-1.5517597
-0.6532597
0.1659437
0.7824474
1.1401824
1.2583976
1.2101059
1.0863936
0.9641457
0.8880231
0.86860174
0.8921491
0.9349683
0.97599834
1.0039982
1.0185614
1.0263795
1.0353922
1.049766
1.0678806
1.0838407
1.0912396
1.0869035
1.0725939
1.0539585
1.0375935
1.0279949
1.0259913
1.0292376
1.0341505
1.0379512
1.0396316
1.0395377
1.0382318
1.0356746
1.0313654
1.025257
1.0186086
1.0139596
1.0140756
1.0205141
1.0327553
1.0484406
1.0645154
1.078496
1.0890986
1.0960171
1.0992956
1.0989707
1.0953038
1.0893241
1.0830468
1.0789224
1.0786757
1.0822436
1.0875783
1.0915773
1.0916786
1.0872152
1.0797219
1.0720203
1.0666674
1.0647466
1.0656985
1.0681698
1.0711802
1.0747185
1.0793113
1.0849
1.0899632
1.0917513
1.0877559
1.0775986
1.0640508
1.0522673
1.0473915
1.0518202
1.0637976
1.0783063
1.089804
1.0951382
1.0947828
1.0916194
1.0881126
1.0838388
1.0752254
1.058151
1.0323488
1.005157
0.99175626
1.0099801
1.0699766
1.1618514
1.2469668
1.2593517
1.1212223
0.7705305
0.19076972
-0.57149416
-1.4129916
-2.2045398
-2.833464
-3.2382648
-3.420812
-3.433818
-3.3531857
-3.2494364
-3.1691065
-3.12978
-3.1260636
-3.1407864
-3.1559074
-3.1596549
-3.1489134
-3.1277788
-3.1040542
-3.0853631
-3.076049
-3.0755262
-3.078341
-3.075936
-3.0598593
-3.0257761
-2.9771385
-2.9269142
-2.8956213
-2.9044197
-2.9636135
-3.0596683
-3.1467261
-3.1497335
-2.9836938
-2.5863585
-1.9520456
-1.1482127
-0.30105373
0.44733024
0.9897724
1.2872694
1.3707105
1.3158432
1.2080889
1.1137508
1.0663449
1.0680785
1.1010699
1.1414026
1.1704247
1.1803111
1.1736385
1.1588922
1.1449175
1.1370308
1.1360542
1.1397986
1.1454448
1.1512427
1.1567837
1.1621724
1.1670947
1.1706021
1.1717107
1.1702292
1.1670913
1.1638669
1.1617786
1.160976
1.1606641
1.1600343
1.1593204
1.160154
1.164841
1.174931
1.1900059
1.2075182
1.2238
1.2356
1.2412443
1.2408491
1.2356642
1.2271738
1.2166537
1.2054092
1.195268
1.1886343
1.1877382
1.1934112
1.2042234
1.2167338
1.2269208
1.2320483
1.2318811
1.2285336
1.2250645
1.2237053
1.2248043
1.2270476
1.2286539
1.2286372
1.2272855
1.2256122
1.2242696
1.2228123
1.2199833
1.2149662
1.2087843
1.2047511
1.2073084
1.2195286
1.2404703
1.2639452
1.2798079
1.277829
1.2529882
1.210076
1.165101
1.1414478
1.1602349
1.2268633
1.3186615
1.3804892
1.3342671
1.1034747
0.64563787
-0.021394119
-0.81446624
-1.6079519
-2.2762249
-2.7360625
-2.9692736
-3.0174553
-2.9556155
-2.859987
-2.7842805
-2.7510734
-2.7567778
-2.783767
-2.8127234
-2.8306975
-2.8336375
-2.8246996
-2.810718
-2.7988703
-2.794466
-2.799779
-2.8134632
-2.8304055
-2.8424578
-2.8407423
-2.8196416
-2.781362
-2.738783
-2.7139487
-2.73052
-2.8009202
-2.9121964
-3.017318
-3.0390456
-2.8902113
-2.5070157
-1.8828512
-1.0846696
-0.23855838
0.51291966
1.0615032
1.3666577
1.4576406
1.4087452
1.3042924
1.210029
1.1597008
1.1566656
1.1848834
1.2223384
1.2515877
1.2648975
1.263972
1.2560067
1.2486336
1.246168
1.2484875
1.2524006
1.2542368
1.2520515
1.2463446
1.239214
1.2327951
1.2281097
1.2249552
1.2226765
1.2210823
1.2207505
1.2225049
1.2265482
1.2320155
1.2373799
1.2414658
1.2443306
1.2473187
1.2521653
1.2597431
1.2693193
1.2788287
1.2859839
1.2895004
1.2896585
1.2878846
1.2857138
1.2838957
1.2822198
1.2800673
1.2771809
1.2740375
1.2715539
1.2704033
1.2705412
1.2713751
1.2724867
1.2743572
1.2784743
1.2865903
1.2995069
1.3161348
1.3334378
1.3473376
1.3541499
1.351912
1.3410648
1.3243002
1.3057634
1.2899702
1.2807223
1.2801467
1.2879094
1.3007342
1.312544
1.3156776
1.3034328
1.2735459
1.231387
1.1910881
1.1729449
1.1964034
1.2696214
1.3785869
1.4804637
1.506343
1.376739
1.0282423
0.44280002
-0.3340837
-1.1983578
-2.0175536
-2.6741133
-3.1020663
-3.3010607
-3.3244896
-3.2511568
-3.155234
-3.0861573
-3.0627398
-3.079033
-3.116053
-3.1534853
-3.177522
-3.1836455
-3.1753123
-3.1605134
-3.148023
-3.1443715
-3.1518981
-3.1679583
-3.1854467
-3.1949148
-3.1883378
-3.163831
-3.1295338
-3.104111
-3.1115384
-3.1695652
-3.274481
-3.3885133
-3.4382365
-3.330448
-2.984994
-2.3736436
-1.5458908
-0.62401026
0.23585664
0.8996258
1.3001112
1.4499191
1.4211938
1.3079315
1.1907405
1.1169246
1.0983126
1.1216091
1.1632875
1.2022507
1.2267039
1.2349843
1.2322903
1.2259933
1.2217939
1.2219174
1.2253975
1.229689
1.2325552
1.2332993
1.2328626
1.2329226
1.2346272
1.237735
1.2406417
1.2412679
1.2382888
1.2319747
1.2241434
1.2172512
1.2131463
1.2121762
1.2131399
1.2140985
1.2135662
1.2113798
1.2087365
1.2073842
1.208457
1.211686
1.2154888
1.2178767
1.2175773
1.2146403
1.2101686
1.2054195
1.2009528
1.196462
1.1913942
1.1858215
1.1807958
1.177802
1.1776637
1.1797347
1.1820683
1.1825575
1.1802956
1.1761849
1.1723101
1.1704699
1.1708883
1.1720527
1.1718549
1.1692609
1.165272
1.1623813
1.1628027
1.1667053
1.1717967
1.1747451
1.1736416
1.1698451
1.1677716
1.172398
1.1857337
1.2043436
1.21968
1.2216438
1.204112
1.1699729
1.1329979
1.114612
1.1351298
1.2011446
1.2932206
1.3599554
1.3244346
1.1056961
0.6508087
-0.03495926
-0.8762091
-1.7442563
-2.4987268
-3.0353315
-3.3173006
-3.377639
-3.2953172
-3.1599755
-3.0413504
-2.9736416
-2.9566696
-2.968916
-2.9842644
-2.9848647
-2.9660542
-2.933677
-2.8973892
-2.8644924
-2.837388
-2.8149278
-2.7954745
-2.7788157
-2.7654216
-2.7538548
-2.7388535
-2.7125106
-2.6689506
-2.6102712
-2.5499506
-2.5103667
-2.5134373
-2.5667906
-2.650964
-2.7144907
-2.6824076
-2.4793012
-2.0609376
-1.4411957
-0.69861466
0.04557007
0.670063
1.0955582
1.3056127
1.3399038
1.268875
1.1649015
1.0814458
1.0443615
1.0538949
1.0934156
1.1405202
1.1767787
1.1935108
1.1924567
1.1820074
1.1713861
1.1658874
1.1653968
1.1663859
1.1655765
1.1626613
1.1603328
1.1618768
1.1683028
1.1771874
1.1840839
1.1855234
1.1815137
1.1757413
1.1732364
1.1770511
1.186231
1.1964878
1.203131
1.2042347
1.2018052
1.2001067
1.2023349
1.2080077
1.2129453
1.211913
1.2021443
1.1853182
1.16663
1.1516393
1.1431072
1.1399548
1.1389396
1.1377085
1.1369102
1.1397469
1.149277
1.1654855
1.1843479
1.1997205
1.2069132
1.2055483
1.1996994
1.1951262
1.1954341
1.1997676
1.2036247
1.2022573
1.1942874
1.1829795
1.1742337
1.1726938
1.1786819
1.1881235
1.1955677
1.1982021
1.1979476
1.1999553
1.2083287
1.2219267
1.2333112
1.2321349
1.2115662
1.1743205
1.1347246
1.1149081
1.1356379
1.2043988
1.3046662
1.3909099
1.3935157
1.2358917
0.86161405
0.26285976
-0.5039405
-1.3273743
-2.0756626
-2.6417885
-2.9772692
-3.0997732
-3.0750167
-2.9854097
-2.9005375
-2.8596613
-2.8691692
-2.9119835
-2.9626098
-3.0008986
-3.0194585
-3.0231314
-3.022657
-3.0270462
-3.0391197
-3.05611
-3.0737958
-3.0905402
-3.108109
-3.1287384
-3.1508849
-3.1674488
-3.1689425
-3.1507392
-3.120286
-3.099035
-3.1156073
-3.190745
-3.3192828
-3.457532
-3.524496
-3.4214916
-3.0673456
-2.4370985
-1.5855931
-0.6398845
0.24114111
0.92233413
1.3356994
1.4923644
1.4629414
1.3415473
1.2117797
1.1261641
1.1015242
1.1265618
1.175553
1.2223079
1.2501168
1.2555302
1.246031
1.2336566
1.2279375
1.2315058
1.2401633
1.2467753
1.2463198
1.2389607
1.2294359
1.2235004
1.2240012
1.2291946
1.2342733
1.2348961
1.23024
1.2235165
1.2197163
1.2222438
1.2307682
1.241676
1.2506865
1.2557317
1.2580844
1.2610164
1.2670391
1.2757484
1.283826
1.287225
1.284036
1.2760259
1.2677372
1.2637193
1.2657486
1.2718968
1.2780504
1.2808108
1.2797675
1.2775878
1.2779185
1.2826294
1.2903608
1.2973963
1.3002516
1.2981621
1.2936879
1.2909522
1.2926906
1.298147
1.303296
1.303309
1.2956613
1.2818342
1.2665069
1.2548255
1.2495987
1.2502477
1.2540992
1.2590163
1.2654401
1.2762724
1.2944369
1.3195683
1.346062
1.3641624
1.3641459
1.3418849
1.3031348
1.2641263
1.2472141
1.271856
1.3428245
1.4392784
1.5097985
1.4786634
1.2659904
0.81822354
0.13767056
-0.7045466
-1.5831914
-2.3586512
-2.9242961
-3.2390046
-3.3311965
-3.2765987
-3.163826
-3.063881
-3.0138497
-3.016875
-3.0539184
-3.0996447
-3.1351616
-3.153494
-3.1577783
-3.1553557
-3.152022
-3.1495845
-3.1472611
-3.1448672
-3.144761
-3.1507022
-3.164243
-3.1813834
-3.1925704
-3.1872847
-3.161491
-3.1238697
-3.096418
-3.106925
-3.1743226
-3.2917747
-3.4151387
-3.4646726
-3.3444977
-2.9771383
-2.3411603
-1.4933859
-0.56008065
0.30371332
0.96859205
1.37202
1.5282196
1.5075686
1.4010062
1.2873098
1.2141403
1.1948382
1.2169133
1.2559171
1.2887785
1.3025087
1.2965459
1.2794187
1.2623148
1.2529773
1.2526839
1.2572095
1.2605792
1.2591453
1.2536361
1.2482387
1.2476249
1.2539726
1.2658043
1.2791468
1.2900145
1.296494
1.2991676
1.2998782
1.2999585
1.2992588
1.2965794
1.2910402
1.2832627
1.2753842
1.269778
1.2673267
1.2665117
1.2641269
1.2573385
1.2458141
1.2324566
1.2221413
1.2191807
1.2250595
1.2377528
1.2528934
1.2659699
1.2742559
1.2775124
1.2773058
1.275565
1.2733245
1.2703754
1.2659215
1.2596889
1.2526395
1.2467182
1.2437494
1.2442242
1.2468476
1.2492393
1.2494001
1.2469982
1.2435844
1.2415344
1.2423743
1.245623
1.2490094
1.2500517
1.248024
1.2449358
1.2446394
1.2503371
1.2618469
1.274323
1.2795422
1.2696717
1.2421646
1.2035961
1.170171
1.1633811
1.2007425
1.2835699
1.3859717
1.4508693
1.3985324
1.1495215
0.6568903
-0.06534549
-0.93346524
-1.8142282
-2.5682018
-3.0966666
-3.3701355
-3.4273436
-3.3494723
-3.2248614
-3.1199799
-3.0657961
-3.0603378
-3.0819993
-3.1056037
-3.114279
-3.103739
-3.0795918
-3.0510929
-3.0254276
-3.005266
-2.9898565
-2.9777489
-2.9686139
-2.962724
-2.9586847
-2.9515946
-2.9339058
-2.8996074
-2.849975
-2.7974243
-2.7640007
-2.77289
-2.8345385
-2.9324286
-3.015755
-3.0057497
-2.8182979
-2.3978543
-1.7490376
-0.94827664
-0.12448888
0.5855235
1.0852606
1.3463911
1.4058561
1.3394862
1.2287877
1.1354977
1.0903654
1.0950234
1.1319405
1.1769419
1.209994
1.2216016
1.2138015
1.1964339
1.1809596
1.1748512
1.1789916
1.1888072
1.1979511
1.202176
1.2012131
1.197889
1.1954695
1.1951716
1.1954356
1.1932609
1.1865401
1.1757329
1.1637655
1.1543273
1.1497848
1.1500875
1.1532629
1.1570137
1.1602509
1.1635399
1.1682343
1.1749665
1.1826127
1.1885782
1.190337
1.1871874
1.1809348
1.1749225
1.1720239
1.1729417
1.1759579
1.1782917
1.1781094
1.1757736
1.1734543
1.1734036
1.1761479
1.1799223
1.1817871
1.1796535
1.17378
1.1666709
1.1614256
1.1596482
1.160345
1.1605934
1.15758
1.1506438
1.1419094
1.1350281
1.13283
1.1354641
1.140332
1.1439333
1.1444124
1.1430355
1.1434757
1.1492522
1.1609819
1.1753352
1.1865486
1.1896604
1.1834551
1.17122
1.1588036
1.1512097
1.1499094
1.1525502
1.1551129
1.1549011
1.1522304
1.1496714
1.1495297
1.1515782
1.1529217
1.1502992
1.1432364
1.1356127
1.1340857
1.1439059
1.1645875
1.1883695
1.2030382
1.1982546
1.1724236
1.1364155
1.1113943
1.120168
1.1740863
1.2598983
1.3325019
1.3193467
1.1393454
0.7331072
0.093749985
-0.7171626
-1.5806016
-2.3572617
-2.9349785
-3.263818
-3.3638093
-3.305865
-3.1787372
-3.0576513
-2.9853895
-2.9691615
-2.990353
-3.020603
-3.0368824
-3.0300565
-3.0049396
-2.9737604
-2.9475756
-2.930471
-2.9192529
-2.9078758
-2.8930304
-2.8768716
-2.8650665
-2.8616064
-2.8640723
-2.8629289
-2.8460193
-2.8062212
-2.7481062
-2.689624
-2.656905
-2.673017
-2.7439647
-2.8468735
-2.9259992
-2.901428
-2.6922107
-2.2492487
-1.5850563
-0.7831713
0.023535188
0.6991801
1.1530702
1.3657538
1.3835759
1.2900647
1.1709002
1.0869564
1.0626283
1.0895042
1.140425
1.1865069
1.2100688
1.2092719
1.1943781
1.1791612
1.1726909
1.17571
1.1826593
1.1870184
1.1860495
1.1820014
1.179515
1.1815743
1.1871402
1.1920968
1.1925888
1.1881403
1.1822245
1.1798629
1.1840332
1.1935652
1.2040803
1.2112471
1.213949
1.2150495
1.219167
1.2290351
1.2430993
1.2561345
1.262481
1.2596606
1.24992
1.2387067
1.2311964
1.2293155
1.2312604
1.2336291
1.2344066
1.2345463
1.2370154
1.2440983
1.2551194
1.2664821
1.2741079
1.2764117
1.2754114
1.2748657
1.2765965
1.2778292
1.2721461
1.2543548
1.2266572
1.2018979
1.2004023
1.2397655
1.3207814
1.4158083
1.4666818
1.3969396
1.1377028
0.6591115
-0.0070921336
-0.76823336
-1.4990686
-2.0861936
-2.4661396
-2.6389372
-2.6547105
-2.585368
-2.4971797
-2.4341521
-2.4138417
-2.4321027
-2.4721196
-2.514086
-2.543161
-2.5540798
-2.5514193
-2.5456655
-2.5469642
-2.559666
-2.5804596
-2.60099
-2.613355
-2.615173
-2.611099
-2.609825
-2.6184127
-2.637417
-2.6597834
-2.6743643
-2.6723301
-2.6532059
-2.6274748
-2.6142159
-2.634001
-2.6986258
-2.8003466
-2.904385
-2.9492679
-2.8589392
-2.5670114
-2.0466213
-1.3323985
-0.5202291
0.26007628
0.8886688
1.2951666
1.4756496
1.4824141
1.3954985
1.2909743
1.2185743
1.1945039
1.2082505
1.2372649
1.2616923
1.2730683
1.2748308
1.2766044
1.2866659
1.3069657
1.3328986
1.3570216
1.3737962
1.3823011
1.3855823
1.387674
1.3907081
1.3941071
1.3960651
1.3958017
1.39463
1.3949553
1.3980709
1.4026623
1.4053844
1.4032085
1.3957969
1.3860872
1.3785391
1.3761992
1.3786567
1.3823823
1.3832397
1.379395
1.3725858
1.3668877
1.3658667
1.3701308
1.3770012
1.382495
1.3841562
1.3826901
1.3812456
1.3828865
1.3881148
1.3942933
1.397421
1.3949778
1.3877869
1.3795563
1.374417
1.3742069
1.3774494
1.380715
1.3812929
1.3791667
1.3768603
1.3773082
1.3813889
1.3870862
1.3910636
1.391526
1.3900754
1.3908038
1.396811
1.4064252
1.4121926
1.4043933
1.3779962
1.339261
1.3073674
1.3081012
1.3602244
1.459265
1.5662566
1.6089218
1.4993001
1.1651683
0.58445615
-0.19382383
-1.0563327
-1.8613687
-2.4884717
-2.8771658
-3.0373898
-3.031559
-2.9423156
-2.842583
-2.778
-2.7634184
-2.789744
-2.835697
-2.8796062
-2.9078119
-2.9179091
-2.9167364
-2.9147167
-2.9195306
-2.9322972
-2.9480827
-2.9601455
-2.9651477
-2.9659169
-2.9698167
-2.9835753
-3.0077703
-3.0345862
-3.0507889
-3.04498
-3.0156655
-2.9758053
-2.9506962
-2.9685464
-3.0459108
-3.172624
-3.302515
-3.3562431
-3.2400808
-2.8785663
-2.2505188
-1.4111294
-0.48457995
0.3748181
1.0363059
1.4347866
1.5824597
1.5495292
1.4286846
1.3013905
1.217709
1.1924307
1.2136588
1.2570715
1.299344
1.3264968
1.3358591
1.3328074
1.3250532
1.3177375
1.3116739
1.304991
1.296353
1.287185
1.2812816
1.2821395
1.2900276
1.3010128
1.3087927
1.3082561
1.2985443
1.2837005
1.2705107
1.2648828
1.2689439
1.2804513
1.294597
1.3068815
1.3152436
1.3203042
1.3239043
1.3271917
1.3296188
1.3294306
1.3251629
1.317012
1.3070527
1.2981048
1.2920103
1.2885184
1.2855611
1.2807711
1.2732422
1.2643049
1.2567285
1.252835
1.2527933
1.254295
1.2539357
1.2494853
1.2415422
1.2333717
1.2289236
1.230295
1.2363029
1.2431097
1.2465022
1.2443595
1.2377559
1.2300661
1.2247336
1.2231708
1.2241296
1.2248969
1.2234393
1.2199485
1.2166777
1.2161869
1.219281
1.2242008
1.2278118
1.2280769
1.2260123
1.2254668
1.2304524
1.2414908
1.2534252
1.256695
1.2422714
1.2081823
1.1641339
1.1309489
1.1333342
1.1872166
1.2857177
1.389796
1.4297421
1.3212923
0.9947063
0.42755517
-0.33420286
-1.1811668
-1.9741583
-2.5925443
-2.9735582
-3.1247644
-3.1081746
-3.008584
-2.902305
-2.837276
-2.8278348
-2.861587
-2.9128928
-2.9569402
-2.9795537
-2.9802203
-2.9686015
-2.9572628
-2.9546301
-2.9616036
-2.9730518
-2.9826756
-2.987927
-2.9918146
-3.0004842
-3.0181923
-3.042975
-3.065953
-3.0751703
-3.062322
-3.0290627
-2.9895668
-2.9674108
-2.9868038
-3.060017
-3.1745973
-3.2854903
-3.3178692
-3.1846998
-2.8175573
-2.2006187
-1.3908181
-0.50916725
0.29786205
0.9098356
1.271237
1.400466
1.36944
1.2682267
1.1720834
1.1224436
1.124886
1.1602298
1.2012335
1.2271369
1.2309482
1.2184569
1.2016062
1.1907471
1.1898652
1.1965224
1.2053304
1.2120153
1.2154268
1.2167234
1.2170213
1.2156954
1.2107296
1.2007397
1.1869161
1.1731747
1.1641611
1.1624056
1.1666839
1.1728622
1.1767185
1.1767583
1.1750087
1.1752112
1.1797018
1.1872509
1.1934891
1.193697
1.186019
1.1728503
1.1594138
1.1504923
1.1475508
1.1482037
1.1483269
1.145255
1.1397865
1.1356131
1.1366322
1.144092
1.1556048
1.1666895
1.1736583
1.1757411
1.1749891
1.1741889
1.1744946
1.1746669
1.1725279
1.1674632
1.1618911
1.1603384
1.1665586
1.1806544
1.1982988
1.2127938
1.2187947
1.2153544
1.206312
1.197752
1.1941805
1.195915
1.1993634
1.1998836
1.1951443
1.1866074
1.1781576
1.1729994
1.1712209
1.1699482
1.166064
1.1594497
1.1541315
1.1560595
1.168634
1.1889201
1.2075036
1.2129793
1.1992118
1.171432
1.14713
1.149656
1.1956295
1.2804564
1.3683199
1.3930563
1.2737323
0.943176
0.38015968
-0.37002495
-1.2005565
-1.9760514
-2.5795639
-2.9505851
-3.0969431
-3.0793736
-2.980878
-2.876317
-2.8128157
-2.8043547
-2.8383605
-2.889117
-2.9319806
-2.9532738
-2.9530995
-2.941441
-2.9306319
-2.9284835
-2.9354634
-2.9467425
-2.9570606
-2.964859
-2.9728982
-2.9850893
-3.001877
-3.0176451
-3.022517
-3.0082805
-2.9754841
-2.9375572
-2.918645
-2.9442394
-3.0267704
-3.1511126
-3.2666488
-3.2922342
-3.1372736
-2.7355287
-2.0795817
-1.2380399
-0.34157437
0.46033546
1.0518465
1.3862987
1.4901887
1.4395554
1.3247112
1.2195519
1.1647795
1.1665587
1.2066656
1.2576407
1.2964746
1.312389
1.3074253
1.2915739
1.2759631
1.2676083
1.267668
1.2730244
1.279442
1.2841996
1.2869128
1.288618
1.2902393
1.291687
1.2921132
1.290908
1.2885274
1.2864733
1.2864476
1.2893304
1.2947186
1.3013195
1.3078597
1.3138404
1.3196061
1.3257283
1.3322059
1.3380816
1.3417398
1.3416845
1.3373396
1.3294603
1.3200078
1.3116102
1.3068405
1.3075296
1.3142788
1.326306
1.3416765
1.3578445
1.3723011
1.3830714
1.3889027
1.3891963
1.3839128
1.3736814
1.3601576
1.3463863
1.3366951
1.3356738
1.3462368
1.3674555
1.3934042
1.41423
1.4198242
1.405069
1.3743335
1.3425164
1.3307912
1.3571389
1.4241999
1.5091525
1.5612779
1.5116187
1.2950834
0.87888575
0.2849117
-0.4076961
-1.0856186
-1.6413945
-2.0105333
-2.1877182
-2.217512
-2.1687555
-2.106955
-2.0754397
-2.0892558
-2.1401
-2.2075484
-2.2711136
-2.3186646
-2.348938
-2.368585
-2.386409
-2.4082599
-2.4350998
-2.464598
-2.4944944
-2.525092
-2.5590594
-2.5986862
-2.642546
-2.6841226
-2.7139492
-2.7248006
-2.7176075
-2.7049243
-2.7093105
-2.7555268
-2.857652
-3.0047462
-3.1510124
-3.2173982
-3.1095388
-2.7507052
-2.119062
-1.2710179
-0.334088
0.53312904
1.1966335
1.5908387
1.7306585
1.6911585
1.5699167
1.451042
1.383607
1.3779541
1.416038
1.468319
1.5094706
1.5274565
1.5242594
1.5102811
1.4967161
1.4901268
1.4912809
1.4974835
1.5058554
1.5151513
1.5253284
1.5358887
1.544797
1.5490886
1.5467521
1.5383669
1.5271279
1.5171003
1.5108718
1.5082332
1.5068033
1.5040963
1.4994985
1.4947331
1.4925348
1.4945667
1.500151
1.5067735
1.5119733
1.5151587
1.5179275
1.5226089
1.5300944
1.5386261
1.5445656
1.5447274
1.5386543
1.5291812
1.5208323
1.517136
1.5187509
1.5237294
1.5296639
1.5359573
1.5442474
1.5563352
1.5709429
1.5818404
1.5794417
1.5559958
1.5120755
1.4606223
1.4251702
1.4309511
1.4906743
1.589922
1.6791376
1.6788247
1.5008674
1.0818462
0.41598797
-0.42914876
-1.3264567
-2.130294
-2.726502
-3.0675051
-3.177815
-3.1320944
-3.020346
-2.9166448
-2.8617015
-2.8613973
-2.8973162
-2.9423885
-2.974785
-2.9854472
-2.9780176
-2.9631524
-2.9511282
-2.9467504
-2.9487567
-2.9530606
-2.9569607
-2.9611835
-2.96841
-2.9794989
-2.9904027
-2.9926143
-2.9778628
-2.9449544
-2.9048076
-2.8798482
-2.8959422
-2.9682589
-3.0858145
-3.2017002
-3.2360513
-3.0957723
-2.7083702
-2.058214
-1.2069979
-0.2832019
0.5595222
1.1962074
1.5699364
1.6997716
1.659164
1.540302
1.4215857
1.3488221
1.332457
1.3571057
1.3967403
1.428762
1.4422231
1.4386847
1.4273683
1.4182583
1.4169241
1.4231575
1.4330734
1.4425424
1.449604
1.4546723
1.4589971
1.4629143
1.4652869
1.4644291
1.459647
1.452115
1.4443557
1.4386814
1.4357619
1.434371
1.4324439
1.4286267
1.4231964
1.4177381
1.4138904
1.412178
1.4118514
1.4118123
1.4118062
1.4128411
1.4164157
1.4230986
1.4315637
1.4388947
1.4420292
1.4393661
1.4314471
1.4202981
1.4079854
1.395501
1.3827789
1.3696909
1.3570464
1.3466429
1.3402282
1.338177
1.3390259
1.3404284
1.3409458
1.341264
1.3436328
1.3495344
1.3570299
1.359947
1.3503727
1.3239678
1.2854534
1.2505755
1.241698
1.2768046
1.3552201
1.4463246
1.4883586
1.4020526
1.1180533
0.60926634
-0.08708048
-0.87208414
-1.6159331
-2.2037888
-2.573952
-2.7306705
-2.7297447
-2.6489232
-2.5586889
-2.503898
-2.4990587
-2.5344543
-2.587935
-2.637156
-2.668288
-2.6791759
-2.6770725
-2.6729338
-2.6753387
-2.6869519
-2.7049224
-2.7243578
-2.7422755
-2.7593298
-2.778177
-2.799695
-2.8199644
-2.8307838
-2.8244514
-2.8007011
-2.7717025
-2.7610137
-2.794572
-2.8854938
-3.0182548
-3.1401029
-3.166932
-3.0066125
-2.5949805
-1.9306159
-1.0896288
-0.20760173
0.56687933
1.1246936
1.4284096
1.5117204
1.4528486
1.339351
1.2400193
1.1912506
1.197437
1.2407352
1.2945493
1.3357593
1.3522861
1.3446501
1.3223245
1.29736
1.2784199
1.2677386
1.2619078
1.2554817
1.2450522
1.231392
1.2186029
1.2111336
1.2107973
1.2157462
1.2219515
1.2260427
1.2274925
1.2286614
1.2327461
1.2411135
1.2519165
1.2610105
1.2646109
1.2618902
1.2557012
1.2508743
1.2511852
1.2569975
1.2651438
1.2711189
1.2721013
1.2687471
1.264557
1.2632915
1.2662475
1.2713013
1.2744159
1.272598
1.266243
1.2591761
1.2562644
1.2601627
1.2694219
1.2793529
1.2852111
1.28563
1.2839104
1.2860552
1.2965409
1.3144013
1.3322573
1.339379
1.3276117
1.2972943
1.2600173
1.2362146
1.2474592
1.3052366
1.3995646
1.4919614
1.5175657
1.3997269
1.0760863
0.5283221
-0.19841771
-0.99996185
-1.744521
-2.318266
-2.6628337
-2.787521
-2.7541327
-2.6460166
-2.5369558
-2.4713435
-2.4595928
-2.4863613
-2.5254488
-2.5543442
-2.562897
-2.5539088
-2.5373049
-2.5223026
-2.5123045
-2.504971
-2.4964256
-2.4859545
-2.4775324
-2.4769576
-2.4865754
-2.5014098
-2.509842
-2.4992557
-2.463947
-2.4110074
-2.36064
-2.3397589
-2.370342
-2.4560175
-2.5714793
-2.6596804
-2.6410139
-2.4359426
-1.9967146
-1.3360723
-0.5364975
0.270602
0.9498726
1.4093367
1.6266036
1.64452
1.5440086
1.4102314
1.3061199
1.2602378
1.2690774
1.309323
1.3534867
1.3825253
1.391293
1.3862119
1.3780365
1.3744982
1.3769004
1.3817517
1.3852435
1.3869064
1.3898736
1.397899
1.4116906
1.4275509
1.4394672
1.4431323
1.4389321
1.4317003
1.4273853
1.429008
1.4348074
1.4398515
1.4398454
1.4343212
1.4269226
1.4226407
1.4240761
1.4295219
1.434323
1.4345089
1.4299918
1.4249216
1.424866
1.4327972
1.4467821
1.4610856
1.4699386
1.4712884
1.4678583
1.464791
1.4656322
1.4696528
1.4725814
1.4702637
1.462464
1.4537265
1.4502485
1.454675
1.4625905
1.4638244
1.4487504
1.4163272
1.378914
1.3599558
1.3838501
1.4610738
1.5744387
1.6731266
1.6795733
1.5104456
1.1072801
0.46602896
-0.34900182
-1.217746
-2.0019996
-2.5918255
-2.9387038
-3.0616753
-3.0282726
-2.9232812
-2.8198066
-2.7616646
-2.7594504
-2.7979217
-2.8498068
-2.8902159
-2.9064782
-2.9004903
-2.8839748
-2.8701122
-2.8663597
-2.8721175
-2.8817298
-2.8900237
-2.8962367
-2.9035752
-2.914887
-2.9278994
-2.9341738
-2.9236765
-2.8930447
-2.8525789
-2.826583
-2.8442793
-2.9231067
-3.0508034
-3.1751738
-3.2094712
-3.0564158
-2.645627
-1.9701729
-1.1032422
-0.1816621
0.6402186
1.2446558
1.5858798
1.6924406
1.6418736
1.5250459
1.4166106
1.359513
1.363343
1.4122926
1.4778619
1.5320897
1.557738
1.5527172
1.5278101
1.499335
1.4805835
1.4762244
1.4820635
1.4895394
1.4918008
1.4876086
1.480998
1.4775014
1.4798473
1.4861146
1.4914342
1.4918395
1.4873931
1.4822792
1.4817905
1.4884127
1.4998366
1.5103314
1.5145514
1.51115
1.50368
1.4981074
1.4986159
1.5045695
1.510744
1.5107249
1.50121
1.4842856
1.4661261
1.4530251
1.4475039
1.4471868
1.4472374
1.4446427
1.4412094
1.4428782
1.4554571
1.4794462
1.5075126
1.5267918
1.5253496
1.4995536
1.4583123
1.42151
1.4125253
1.4470853
1.5221128
1.6086661
1.652761
1.5866029
1.3497986
0.91512567
0.3080881
-0.3917921
-1.0731316
-1.6303728
-1.9989749
-2.1716313
-2.1908576
-2.12556
-2.04414
-1.9943709
-1.9949405
-2.0385606
-2.1030145
-2.164652
-2.208856
-2.2338989
-2.2477784
-2.26087
-2.279042
-2.301193
-2.3221354
-2.3382263
-2.3514175
-2.3686244
-2.3966205
-2.4358878
-2.4779015
-2.508459
-2.5159528
-2.5002537
-2.4769678
-2.4736438
-2.5179658
-2.6215737
-2.7655995
-2.8946805
-2.9248123
-2.7666574
-2.3594897
-1.7032652
-0.87198275
0.0032908812
0.77782416
1.3427969
1.656986
1.748424
1.6911143
1.5719075
1.4620414
1.4013507
1.3964589
1.4297771
1.4738855
1.5054215
1.5137578
1.5022002
1.4825827
1.4669211
1.4608392
1.462045
1.4639354
1.4613441
1.4543965
1.4479846
1.4475398
1.4543607
1.4639809
1.4688349
1.4634085
1.4482778
1.4301378
1.4176828
1.4160886
1.4238211
1.4338864
1.4386151
1.4347169
1.4252169
1.417064
1.4161906
1.4234816
1.4343567
1.442099
1.4424871
1.4364569
1.4289911
1.4251709
1.426342
1.4292006
1.4284501
1.4210725
1.4090496
1.3984199
1.3951943
1.4009963
1.4116111
1.4196861
1.4199302
1.41328
1.4069538
1.409926
1.4264464
1.4517328
1.4728968
1.4752017
1.450666
1.4045537
1.3561088
1.3323396
1.3563447
1.4336238
1.5409214
1.6225579
1.5985413
1.3860291
0.9302193
0.23375353
-0.63043666
-1.5338519
-2.3325372
-2.9154708
-3.2385364
-3.3297622
-3.2673523
-3.144274
-3.0358174
-2.9812658
-2.9827456
-3.0174828
-3.0557926
-3.0765517
-3.074379
-3.0572734
-3.0380425
-3.0253978
-3.0198622
-3.0160813
-3.0089047
-2.9984
-2.9901023
-2.9903393
-3.0000098
-3.0114677
-3.0113688
-2.9885805
-2.9429042
-2.8894205
-2.8550785
-2.8675058
-2.939411
-3.0542407
-3.1594958
-3.1731389
-3.005363
-2.5919847
-1.9277298
-1.0823171
-0.1861911
0.6120969
1.1974177
1.523318
1.6165837
1.5544618
1.4295536
1.3182348
1.2624153
1.2671661
1.3111197
1.3632256
1.3985609
1.407453
1.3956199
1.3771014
1.364776
1.3637667
1.3707304
1.3782802
1.3809035
1.3783581
1.3746996
1.3742571
1.3778754
1.3822392
1.3826145
1.3767728
1.3670416
1.3588674
1.3568974
1.3614796
1.3682157
1.3709726
1.3662299
1.3556437
1.3449597
1.3400145
1.3426692
1.3495834
1.3546919
1.3535932
1.3466966
1.3388766
1.3359005
1.34021
1.3491015
1.3566208
1.3578023
1.35221
1.3442507
1.3400571
1.3432087
1.3523797
1.3626072
1.3692045
1.3713362
1.3724245
1.3768139
1.3849723
1.3909053
1.3843714
1.357488
1.3122375
1.2641451
1.2387851
1.2610446
1.340601
1.4593049
1.5664073
1.5858357
1.4363384
1.0604256
0.4524007
-0.3278958
-1.1662178
-1.9292467
-2.50928
-2.857107
-2.9890947
-2.9693878
-2.8795207
-2.7898011
-2.7418756
-2.7451825
-2.784862
-2.8357635
-2.8762915
-2.8969007
-2.9009106
-2.8989005
-2.9007468
-2.9100018
-2.9234567
-2.9353638
-2.9428897
-2.9487798
-2.9592638
-2.9785883
-3.0040882
-3.0257115
-3.0313067
-3.0152936
-2.9858022
-2.9653738
-2.9828265
-3.057821
-3.1835115
-3.315056
-3.3716362
-3.256186
-2.8900635
-2.2508602
-1.3950552
-0.44981167
0.4274012
1.1037462
1.5135261
1.6694341
1.6426067
1.5266247
1.4035786
1.3237418
1.3014907
1.323761
1.3646054
1.3994645
1.4145138
1.4090889
1.3919984
1.3747221
1.3652396
1.3652501
1.3713672
1.3787231
1.3843944
1.38861
1.3933992
1.4000604
1.4074532
1.4123567
1.4116247
1.4046623
1.3945366
1.3868926
1.387197
1.3978299
1.4166025
1.4374866
1.4531581
1.4580345
1.4503404
1.4324039
1.4093823
1.3872727
1.3711109
1.3638657
1.3660553
1.3758886
1.3898154
1.4034747
1.4129465
1.4159673
1.4126397
1.4052945
1.3975195
1.3927616
1.3931081
1.3987063
1.4079142
1.4179707
1.4259067
1.4295026
1.4281431
1.4233241
1.4184245
1.4174427
1.4228729
1.4336008
1.444155
1.4464076
1.4337507
1.4062759
1.3742635
1.3571357
1.376261
1.442506
1.542522
1.6302965
1.6308744
1.4599289
1.0558234
0.4122347
-0.40558583
-1.273561
-2.0488806
-2.619454
-2.9386575
-3.0305395
-2.9678128
-2.8375206
-2.7108872
-2.6272264
-2.593291
-2.593516
-2.6043847
-2.6067913
-2.5925786
-2.564403
-2.5308037
-2.4999135
-2.4751508
-2.4546776
-2.4341562
-2.4105515
-2.384375
-2.3589692
-2.337415
-2.3192124
-2.2991714
-2.2697532
-2.2260606
-2.170956
-2.1172726
-2.0848963
-2.0922642
-2.1442127
-2.2205312
-2.2712007
-2.2239645
-2.0062883
-1.5766172
-0.95158833
-0.21259886
0.51711756
1.1166825
1.5105395
1.688653
1.6975796
1.6123828
1.5058151
1.4272937
1.3961148
1.4066448
1.4399028
1.4756343
1.5005987
1.5112761
1.511651
1.5084578
1.5067953
1.5081129
1.5108255
1.5123609
1.5110356
1.5067377
1.500401
1.4930326
1.4851567
1.4769658
1.468819
1.4615196
1.4560863
1.4531863
1.4527115
1.4538877
1.455855
1.4582258
1.461149
1.4648348
1.4689564
1.4724741
1.4741349
1.4733354
1.4706815
1.4677582
1.4662153
1.4668013
1.4690349
1.4717613
1.4741659
1.4764148
1.4793551
1.4834641
1.4878916
1.4904596
1.4888331
1.4821597
1.4719886
1.4616764
1.4545735
1.4522142
1.4537935
1.4573103
1.4615077
1.4670335
1.4756985
1.4880959
1.5012305
1.5081745
1.5008262
1.4750344
1.4356426
1.398345
1.3860526
1.419442
1.5038528
1.6170741
1.7040576
1.6841697
1.4731717
1.0155177
0.31480348
-0.55374306
-1.4596405
-2.25895
-2.842945
-3.1705718
-3.2713892
-3.2221963
-3.1122131
-3.0128827
-2.9619217
-2.963111
-2.9974804
-3.0389607
-3.0677555
-3.0769534
-3.0714014
-3.0612888
-3.0548651
-3.0543454
-3.056667
-3.0576487
-3.056153
-3.0551853
-3.0591607
-3.0692976
-3.0805714
-3.0829673
-3.0672112
-3.0322485
-2.9901834
-2.9649706
-2.983507
-3.0609698
-3.1853352
-3.3079624
-3.3470578
-3.2078605
-2.8168774
-2.1585376
-1.2959601
-0.36031497
0.49161184
1.1327037
1.5061365
1.6334343
1.5915774
1.4753779
1.363522
1.2996753
1.2908633
1.3186518
1.3556517
1.380081
1.3835715
1.3709476
1.3540908
1.3440827
1.3458138
1.3571898
1.3722297
1.3853699
1.3941833
1.3992667
1.4021361
1.4031969
1.4014305
1.3958215
1.3871009
1.3781554
1.3725506
1.3721673
1.3757654
1.3796871
1.3803035
1.3764715
1.3702276
1.3652197
1.3640232
1.3663131
1.3692354
1.3696669
1.3666396
1.3620948
1.3593864
1.3606379
1.3649387
1.3687984
1.3686064
1.3633381
1.3555214
1.3497137
1.3495029
1.3551092
1.363239
1.3692414
1.3699932
1.3654982
1.3582098
1.350794
1.3441694
1.3373924
1.3294169
1.3211402
1.3157318
1.3164641
1.3233018
1.3308697
1.3300296
1.3131995
1.2809339
1.2457712
1.2299463
1.2560656
1.3331758
1.443491
1.5363325
1.5347811
1.356765
0.94604105
0.30162522
-0.50928324
-1.3653301
-2.1294196
-2.6946394
-3.0159895
-3.1150143
-3.0598755
-2.9341898
-2.80895
-2.7260928
-2.695514
-2.7027707
-2.7225478
-2.7323587
-2.72163
-2.6934252
-2.6593027
-2.630873
-2.6129587
-2.6019843
-2.5899236
-2.5707257
-2.5447314
-2.5181181
-2.497812
-2.48544
-2.4747121
-2.4545531
-2.4166117
-2.36281
-2.3081517
-2.27615
-2.2876666
-2.3470864
-2.4314566
-2.4881465
-2.4448326
-2.23192
-1.8117701
-1.2027371
-0.48376474
0.22774589
0.8169925
1.2113768
1.3993479
1.4228864
1.3524275
1.2584844
1.1909037
1.1702343
1.1904784
1.2296098
1.2630166
1.2749159
1.2638329
1.2406107
1.220679
1.2150278
1.2247785
1.2419487
1.2553006
1.257313
1.2479827
1.2334784
1.2211267
1.2144741
1.2117335
1.2082634
1.2008462
1.1904311
1.1813635
1.177849
1.1804838
1.1855466
1.1876247
1.1836255
1.1751847
1.1676327
1.1662072
1.172254
1.1821934
1.1900368
1.1916635
1.1877767
1.1833719
1.1840545
1.1918364
1.203457
1.2124853
1.2137564
1.2069999
1.1970516
1.1904609
1.1908816
1.1965245
1.2014854
1.2000005
1.1905751
1.1770109
1.1655947
1.1605041
1.1608127
1.1613628
1.1569672
1.1468877
1.1361519
1.1323836
1.1400298
1.1559483
1.1697989
1.1698133
1.1510493
1.121275
1.1003827
1.1122537
1.1716572
1.2713065
1.3747334
1.4193591
1.3314528
1.0507071
0.55710083
-0.111618154
-0.86314374
-1.5774857
-2.14713
-2.5114145
-2.6696742
-2.6706305
-2.5872288
-2.4897118
-2.4263484
-2.4157515
-2.450239
-2.5068078
-2.5606823
-2.5961866
-2.6111493
-2.6140068
-2.6161811
-2.624533
-2.6382864
-2.6517756
-2.660475
-2.6656735
-2.6742363
-2.6934187
-2.724276
-2.7585223
-2.7817507
-2.781946
-2.7586787
-2.7274308
-2.7155511
-2.7501316
-2.8418643
-2.971221
-3.0835338
-3.0977502
-2.9297376
-2.5248997
-1.8878084
-1.0929931
-0.26663423
0.45588478
0.97642434
1.2618738
1.343042
1.2909632
1.1856482
1.0906416
1.039968
1.0377887
1.0673939
1.1045594
1.1300504
1.136992
1.1310029
1.1240975
1.126235
1.1393756
1.157153
1.1697506
1.1704551
1.1596048
1.143641
1.1303552
1.1238513
1.1226234
1.1217471
1.1172923
1.1096293
1.1032366
1.1032255
1.1112214
1.1237006
1.1340835
1.1371552
1.1326728
1.1255561
1.122466
1.1271323
1.1376848
1.1478462
1.1511595
1.1453245
1.1336387
1.122582
1.1172881
1.1181252
1.1207579
1.1195668
1.1119149
1.1001911
1.0901942
1.0870608
1.0916836
1.1001718
1.1066933
1.1076071
1.1038914
1.100121
1.1007904
1.1067415
1.1144406
1.118793
1.1175408
1.1139214
1.1152731
1.1280521
1.1523921
1.180019
1.197498
1.1936094
1.1670473
1.1300843
1.1055179
1.1170989
1.1763986
1.2707429
1.3572464
1.3671916
1.2228492
0.864624
0.28016433
-0.47834957
-1.3014044
-2.0554664
-2.6284974
-2.9656649
-3.079481
-3.0336864
-2.912574
-2.7906053
-2.7128859
-2.6902764
-2.7071571
-2.7362595
-2.7536912
-2.7483826
-2.7233305
-2.6899476
-2.65974
-2.6381283
-2.6233351
-2.609978
-2.594235
-2.576831
-2.5619075
-2.5527947
-2.547858
-2.5396292
-2.5184155
-2.4787343
-2.4250178
-2.3730726
-2.3455157
-2.3618197
-2.4258506
-2.5153966
-2.5788298
-2.5433118
-2.336
-1.9138529
-1.2902669
-0.5429936
0.20615613
0.83359647
1.2573904
1.4601903
1.4837046
1.402695
1.2938042
1.2120162
1.1806785
1.1946303
1.2319257
1.267983
1.2865306
1.2840335
1.2674483
1.2479477
1.2345233
1.2305907
1.234459
1.2422564
1.25091
1.2593787
1.2678812
1.2763005
1.2833034
1.2868806
1.2857796
1.2806476
1.273978
1.2688245
1.2671261
1.2687886
1.2721318
1.2753192
1.277699
1.2801095
1.2839942
1.2900608
1.297553
1.3047012
1.3099803
1.3131772
1.3154422
1.3182857
1.3223305
1.32683
1.3303434
1.3319986
1.3323264
1.3330158
1.335772
1.3411238
1.3480531
1.3546939
1.3595197
1.3620992
1.3629031
1.3624328
1.3604788
1.3562033
1.349043
1.3396612
1.3300532
1.3225561
1.3184545
1.3172865
1.317505
1.3180689
1.3196476
1.324181
1.3327037
1.3428262
1.3479855
1.3399129
1.3139294
1.2745966
1.2381319
1.2286624
1.267763
1.3599595
1.4797783
1.5673065
1.5379454
1.3074156
0.8256474
0.105809
-0.76745605
-1.6591574
-2.427972
-2.973207
-3.2629352
-3.3328435
-3.2611904
-3.1350508
-3.0226145
-2.9593909
-2.9486783
-2.9719553
-3.0031986
-3.0214784
-3.0179234
-2.9957776
-2.9651482
-2.9360344
-2.913488
-2.8970292
-2.8836534
-2.8716187
-2.8620293
-2.8570318
-2.8560367
-2.8531067
-2.8383152
-2.8034575
-2.7494109
-2.690639
-2.6528437
-2.6625087
-2.7310095
-2.8395092
-2.9324062
-2.9256363
-2.7314134
-2.2934928
-1.6189795
-0.7891875
0.06114927
0.7902037
1.2986188
1.5578495
1.6067624
1.5242475
1.3951087
1.2841024
1.2244668
1.2195606
1.252522
1.298601
1.3361365
1.3536072
1.3514525
1.3388393
1.3273419
1.3247801
1.3321538
1.3447326
1.35601
1.3618022
1.3620296
1.3594701
1.356829
1.3544397
1.3502438
1.3419483
1.329612
1.3165349
1.3075691
1.3059566
1.3109605
1.3180518
1.3216579
1.3187323
1.31078
1.3029239
1.3005587
1.3057666
1.315838
1.3248684
1.3274136
1.3218445
1.3112473
1.3013461
1.2968999
1.2989784
1.3048149
1.3101258
1.3121158
1.3110361
1.3093334
1.309218
1.3105838
1.3108813
1.307088
1.2983276
1.2871181
1.2781439
1.2752508
1.2787431
1.2849686
1.2886453
1.2864497
1.2794299
1.2725064
1.271266
1.2781322
1.2905431
1.3025155
1.308677
1.3080223
1.3046484
1.3046582
1.3110483
1.3199768
1.3212883
1.3037921
1.2628875
1.2064137
1.1550546
1.135886
1.170476
1.261197
1.3806762
1.4694914
1.4460244
1.2291542
0.7689317
0.07400424
-0.7785159
-1.6601193
-2.431259
-2.9876573
-3.2910802
-3.3720767
-3.30744
-3.1861799
-3.0794094
-3.023957
-3.0218556
-3.0518484
-3.0859203
-3.1035962
-3.098927
-3.078863
-3.0556757
-3.0385425
-3.0290859
-3.0227592
-3.014162
-3.002072
-2.9905457
-2.9853508
-2.9883356
-2.9939365
-2.9908435
-2.9685996
-2.9256666
-2.8741512
-2.8376174
-2.8414295
-2.8984685
-2.9955254
-3.0865366
-3.0978558
-2.9476225
-2.5756943
-1.9736303
-1.1998262
-0.36842394
0.38673353
0.95726526
1.2931938
1.4101808
1.3721775
1.2614646
1.15005
1.0817912
1.0681713
1.0955
1.1383616
1.1733762
1.1884067
1.1846945
1.1724253
1.1629826
1.1623782
1.1691921
1.1774004
1.1815145
1.1803516
1.1770997
1.1761193
1.1791636
1.1838976
1.1857404
1.1815604
1.1724032
1.163159
1.1593416
1.1632861
1.1725196
1.1814959
1.185474
1.183772
1.1800737
1.1795944
1.1851698
1.1950841
1.204195
1.2075542
1.2039294
1.1966867
1.1913897
1.1918468
1.197461
1.203783
1.2058566
1.2019285
1.1948351
1.1900436
1.1917241
1.1996485
1.2091619
1.2143154
1.2119825
1.2040392
1.196059
1.1934586
1.1978406
1.2061021
1.2128968
1.2146591
1.2122872
1.2105198
1.2143935
1.2252809
1.2393941
1.249954
1.25162
1.2440827
1.232215
1.2225575
1.2184849
1.2174019
1.2120805
1.1956798
1.1676757
1.1371993
1.1213837
1.1384932
1.1977361
1.2891214
1.3774302
1.4043084
1.3011155
1.0116571
0.51828533
-0.14052007
-0.8730873
-1.5613464
-2.1009572
-2.4353852
-2.568292
-2.5517294
-2.4596698
-2.3602982
-2.297121
-2.2829685
-2.3057625
-2.3415024
-2.3683074
-2.3758204
-2.3668737
-2.3521636
-2.3419757
-2.3400114
-2.3425725
-2.3428192
-2.3366592
-2.3260417
-2.3174398
-2.316649
-2.3235633
-2.3307352
-2.32719
-2.3056552
-2.269121
-2.2327695
-2.2193775
-2.2490513
-2.326486
-2.430365
-2.5099423
-2.4930587
-2.3070064
-1.9079202
-1.3071172
-0.5791445
0.1576945
0.7822193
1.212487
1.4283801
1.4670473
1.3987355
1.2973037
1.2173481
1.1836913
1.193324
1.2261124
1.2586336
1.2754395
1.2738745
1.2617306
1.2503033
1.2472885
1.2533584
1.2635738
1.2717954
1.2748039
1.2735807
1.2714403
1.2708826
1.2716954
1.2715917
1.2685975
1.2631211
1.2580056
1.2564911
1.2596751
1.265493
1.270083
1.2705622
1.2671593
1.2631229
1.2624493
1.2670679
1.2755294
1.2841245
1.2895473
1.2911032
1.2908616
1.2917173
1.2948853
1.2987751
1.3001437
1.2966712
1.2889845
1.2805527
1.2754409
1.2755102
1.2791052
1.2822434
1.2814875
1.2764245
1.2699448
1.2661178
1.2672038
1.2719799
1.2766194
1.2774863
1.2737696
1.2679958
1.2640412
1.2641383
1.2671704
1.269644
1.2687057
1.2648876
1.2622705
1.2655413
1.2757549
1.2878612
1.2923211
1.2807202
1.2526178
1.2195289
1.202776
1.2245398
1.2946005
1.3977321
1.4876345
1.4923482
1.3330383
0.9527348
0.34506887
-0.4311903
-1.262923
-2.0179842
-2.5898662
-2.9304113
-3.0566974
-3.0331256
-2.9410813
-2.8505046
-2.8026345
-2.8065157
-2.846851
-2.8979995
-2.937974
-2.9571805
-2.959338
-2.9556866
-2.9566364
-2.9658487
-2.979805
-2.992277
-3.0000277
-3.0055218
-3.0146618
-3.0311458
-3.0516338
-3.0657756
-3.0621843
-3.0374553
-3.002816
-2.9834247
-3.008479
-3.0947034
-3.2295554
-3.3621001
-3.40826
-3.273006
-2.8852434
-2.2330627
-1.381876
-0.46181652
0.37443212
1.0044595
1.3737758
1.5024515
1.4633265
1.3472137
1.2315995
1.1624929
1.1511765
1.1824446
1.2287803
1.2647547
1.2769603
1.2667757
1.2460582
1.2287729
1.2232354
1.2289073
1.2387908
1.2451627
1.2446724
1.2396849
1.2355255
1.2360418
1.2408017
1.2457684
1.2466629
1.2423216
1.2354941
1.2305398
1.229869
1.2319223
1.2323085
1.2273484
1.217422
1.2075492
1.2045529
1.2126209
1.2303131
1.2511069
1.2671437
1.2736504
1.2711197
1.2639887
1.2570423
1.252255
1.2482522
1.2424923
1.2342373
1.2258505
1.2213033
1.2229716
1.229195
1.2346218
1.2333597
1.2228794
1.2059382
1.1890701
1.1785489
1.1765221
1.179935
1.182949
1.1811316
1.1744514
1.1669803
1.1635944
1.1661632
1.1721224
1.1765945
1.1765559
1.1738446
1.174401
1.1837369
1.2014976
1.2191031
1.2229295
1.2021471
1.1571649
1.1035964
1.0683978
1.078356
1.1446677
1.249565
1.3412491
1.341711
1.1683475
0.764667
0.12907638
-0.6726234
-1.5211265
-2.2813752
-2.847736
-3.1754453
-3.285633
-3.246044
-3.1401224
-3.0385377
-2.9821477
-2.9789083
-3.0122707
-3.0557082
-3.0869954
-3.0968688
-3.089615
-3.0769227
-3.0693123
-3.0701818
-3.0754957
-3.0784965
-3.0756931
-3.0697665
-3.067303
-3.0729291
-3.0841293
-3.0909402
-3.0817492
-3.052361
-3.012891
-2.9873679
-3.0040464
-3.078927
-3.1989367
-3.3130276
-3.3381593
-3.1825273
-2.780888
-2.1285071
-1.2960042
-0.41300845
0.37550798
0.9596016
1.2966672
1.413011
1.3800509
1.2811807
1.1843729
1.1280385
1.1202302
1.1471142
1.1854764
1.2145655
1.2238483
1.2149339
1.1979294
1.1845474
1.1815659
1.1878831
1.1964085
1.199339
1.1934617
1.1821667
1.1730101
1.1725788
1.1821029
1.1966256
1.2081262
1.2104332
1.2026981
1.1893038
1.1765579
1.1686156
1.1653876
1.1636382
1.1602097
1.1548998
1.1508998
1.152547
1.1620876
1.1777854
1.1947137
1.207677
1.214244
1.2158208
1.2160844
1.2179455
1.2212082
1.2225813
1.218047
1.2059473
1.1886188
1.1714097
1.1597209
1.1560478
1.1589444
1.1644702
1.1690096
1.1714766
1.1734556
1.1773505
1.1840299
1.1917673
1.1972994
1.1982638
1.1952012
1.1915197
1.1912434
1.1960149
1.2035004
1.2085198
1.2064041
1.1964532
1.1830837
1.1736262
1.173897
1.1842006
1.1983427
1.2066033
1.2013868
1.1826992
1.1605006
1.1522202
1.1754915
1.2378025
1.3261368
1.40082
1.3982304
1.2456006
0.8866997
0.3101953
-0.43329528
-1.2381128
-1.9759057
-2.5397027
-2.8782413
-3.005237
-2.9831023
-2.89284
-2.8048427
-2.7607527
-2.7696075
-2.815872
-2.8737009
-2.9208968
-2.947324
-2.955627
-2.9557712
-2.957547
-2.9654806
-2.9784906
-2.9933884
-3.0089917
-3.0275593
-3.052434
-3.0836225
-3.114785
-3.1345599
-3.1325626
-3.1073205
-3.0716143
-3.0512195
-3.0755432
-3.1621575
-3.3005188
-3.4420922
-3.5037885
-3.3883724
-3.0189323
-2.3758721
-1.5184932
-0.5757589
0.29482755
0.9622893
1.3639452
1.5152175
1.4882177
1.3751097
1.2548494
1.1745975
1.147518
1.1621648
1.196448
1.2300848
1.2518661
1.2607846
1.2624061
1.2633598
1.2670488
1.2724867
1.2761784
1.2753034
1.2699897
1.263308
1.2591794
1.2597167
1.2637845
1.2676792
1.2674582
1.2614185
1.2511586
1.2405684
1.2334441
1.2313018
1.2327586
1.2347693
1.2348082
1.2325304
1.229846
1.2294209
1.2326669
1.2385935
1.2442784
1.2466255
1.2442528
1.2382919
1.2316194
1.2270685
1.2257996
1.2268513
1.2280847
1.2278328
1.226142
1.2247741
1.225963
1.2307553
1.238065
1.2451078
1.24897
1.2483093
1.2440841
