ecg_value
-1.1120781
-1.1596855
-1.2001654
-1.2291808
-1.245903
-1.2536893
-1.2564995
-1.2589456
-1.2642337
-1.2726274
-1.2833863
-1.2946055
-1.3050956
-1.3138952
-1.3213441
-1.3289722
-1.3373504
-1.3468614
-1.356964
-1.3669754
-1.3760085
-1.3835145
-1.390072
-1.3956834
-1.400217
-1.4031235
-1.4037962
-1.4019315
-1.3977196
-1.3927865
-1.3887285
-1.3866504
-1.3865778
-1.3869166
-1.3846637
-1.3757693
-1.3571832
-1.327786
-1.2895263
-1.2479286
-1.2103521
-1.1828442
-1.1657975
-1.1518351
-1.1263444
-1.0721381
-0.9776086
-0.84376395
-0.6870902
-0.5355437
-0.41982985
-0.363085
-0.373322
-0.4423474
-0.54969066
-0.6694352
-0.7767803
-0.8532154
-0.8896372
-0.88673943
-0.85352284
-0.8032565
-0.7479138
-0.69296813
-0.6351118
-0.5645263
-0.47051862
-0.34880853
-0.20679726
-0.06415199
0.05168679
0.11346807
0.10255881
0.01579995
-0.13155158
-0.3075815
-0.46939278
-0.571158
-0.5723202
-0.4445119
-0.17597163
0.22632599
0.7363674
1.3111355
1.895787
2.432786
2.8736262
3.1895604
3.3764575
3.4508922
3.439571
3.3673732
3.2494214
3.0893743
2.8828762
2.6233394
2.3071811
1.937364
1.5250338
1.0893203
0.6550846
0.24854721
-0.108390264
-0.40361527
-0.6377427
-0.8228229
-0.97693616
-1.1167347
-1.2509918
-1.3776143
-1.4854547
-1.5603869
-1.5933546
-1.5870706
-1.5578843
-1.5305194
-1.5257136
-1.5444173
-1.5553893
-1.4939795
-1.2773631
-0.8348592
-0.14326738
0.74934673
1.7264819
2.6362638
3.3420374
3.7668598
3.9114656
3.8406246
3.6491227
3.4254923
3.2276342
3.0754912
2.957809
2.8461177
2.7092657
2.5243335
2.2823293
1.9886116
1.6591204
1.3144779
0.9744886
0.65493405
0.366991
0.11813348
-0.08711804
-0.2473239
-0.364469
-0.44330046
-0.4891804
-0.5053679
-0.49141893
-0.44397143
-0.35975677
-0.23923424
-0.0887963
0.07971711
0.25193053
0.41476485
0.55940795
0.68243843
0.78533185
0.8732347
0.95368236
1.0353044
1.1262699
1.2324919
1.356065
1.4946129
1.6419166
1.7896318
1.929421
2.054716
2.1615503
2.2483113
2.3148358
2.3616822
2.3903732
2.4047666
2.4128025
2.427323
2.464862
2.5422516
2.6719542
2.8576238
3.0913968
3.3540583
3.6185658
3.8563323
4.044379
4.170732
4.2360444
4.2512827
4.233091
4.1990037
4.163901
4.138008
4.126164
4.1281366
4.139914
4.155756
4.17037
4.180355
4.1843634
4.1822314
4.1739454
4.159335
4.1387563
4.1142635
4.0903397
4.073329
4.069244
4.080301
4.101226
4.116846
4.102495
4.028088
3.8652732
3.5954168
3.2153714
2.7387013
2.19212
1.6089666
1.0222735
0.4591973
-0.06246585
-0.5353225
-0.9606399
-1.3440481
-1.6901598
-1.998545
-2.2631745
-2.4757216
-2.631001
-2.731596
-2.7890596
-2.820774
-2.843816
-2.868831
-2.8969777
-2.9213707
-2.9320877
-2.9221122
-2.8914487
-2.8478634
-2.8044147
-2.7750914
-2.770158
-2.7924633
-2.8355715
-2.8843615
-2.9185112
-2.9185917
-2.8732097
-2.7843688
-2.668131
-2.549347
-2.452079
-2.3897653
-2.359568
-2.3434405
-2.3153205
-2.2513433
-2.13917
-1.9833374
-1.8050787
-1.636676
-1.5118897
-1.4552215
-1.4733102
-1.55138
-1.6564444
-1.747013
-1.7865396
-1.7557073
-1.6585082
-1.5196995
-1.3752431
-1.2602099
-1.1988032
-1.1991746
-1.2533826
-1.3414501
-1.4379596
-1.5194006
-1.5704036
-1.5872364
-1.5775981
-1.5567502
-1.5412058
-1.5421133
-1.5605643
-1.586162
-1.5989094
-1.5736316
-1.4860085
-1.3193297
-1.0706457
-0.754204
-0.39990664
-0.045923293
0.2726187
0.5343597
0.73694056
0.89433706
1.0278505
1.155227
1.2826885
1.4026371
1.4970317
1.5444692
1.5283566
1.4437519
1.3008082
1.1231551
0.9405171
0.7768451
0.6378907
0.5040925
0.3340085
0.07946844
-0.292495
-0.78066224
-1.3433969
-1.9094394
-2.401483
-2.761737
-2.9681492
-3.0356042
-3.0043433
-2.9231298
-2.834995
-2.769795
-2.7432961
-2.7596753
-2.814004
-2.8926125
-2.9711072
-3.0117006
-2.9632075
-2.7676165
-2.3751848
-1.7653124
-0.96508396
-0.054946713
0.84552586
1.6097064
2.141517
2.401886
2.4128916
2.240452
1.966395
1.6626729
1.3756452
1.1220685
0.8944212
0.6716757
0.43130195
0.15859407
-0.14919974
-0.48401126
-0.8311363
-1.1735318
-1.4943279
-1.7774398
-2.0074294
-2.1699579
-2.2534966
-2.2519598
-2.167096
-2.009328
-1.7964911
-1.5510371
-1.2968043
-1.0560406
-0.846636
-0.6793322
-0.55523586
-0.46477672
-0.38955966
-0.30773547
-0.20164964
-0.0646595
0.0963607
0.26446924
0.42055783
0.55175465
0.65621924
0.74237007
0.8236105
0.9117239
1.0122737
1.1237667
1.2401484
1.3546953
1.4631902
1.565178
1.663375
1.762197
1.8664898
1.9809716
2.1101418
2.257961
2.42672
2.6150978
2.8162048
3.0169318
3.1997874
3.3474054
3.4483752
3.5018058
3.5180786
3.5149107
3.5103683
3.5162117
3.5347388
3.5602186
3.5834944
3.5969517
3.597494
3.5867925
3.5696573
3.551946
3.5389898
3.5346625
3.5407147
3.5561218
3.5767295
3.5958338
3.6061194
3.6026642
3.5859122
3.563109
3.5468895
3.5505016
3.5803216
3.6276796
3.6631892
3.637271
3.4895234
3.1665068
2.6429079
1.9373486
1.1143072
0.2689565
-0.50019383
-1.1198303
-1.5600551
-1.8361531
-1.9954872
-2.0968137
-2.1905825
-2.3062162
-2.4483962
-2.6012533
-2.7377536
-2.8310187
-2.8642428
-2.8363197
-2.761595
-2.6642652
-2.5700202
-2.4984252
-2.4586775
-2.4493554
-2.4609275
-2.479195
-2.488488
-2.4743989
-2.4262068
-2.3387828
-2.2134051
-2.0571404
-1.8811558
-1.6987792
-1.5238872
-1.369551
-1.2465222
-1.161479
-1.1155851
-1.1041524
-1.117791
-1.1447172
-1.1734244
-1.1949168
-1.2039897
-1.1993624
-1.1828108
-1.1578003
-1.1283072
-1.0982965
-1.0717721
-1.052826
-1.0451474
-1.0510043
-1.0703148
-1.10051
-1.1373924
-1.1765084
-1.2142678
-1.2483205
-1.2772893
-1.3003707
-1.3172799
-1.328593
-1.3360597
-1.3423045
-1.3496693
-1.358628
-1.3668075
-1.3697112
-1.3634778
-1.3486831
-1.3330287
-1.330561
-1.3562487
-1.4170392
-1.5029845
-1.5833249
-1.6114337
-1.5390288
-1.3351715
-1.0017755
-0.5773158
-0.12524554
0.2887149
0.62012416
0.8593165
1.0293739
1.1709876
1.3222982
1.5027347
1.7065554
1.9065706
2.0643067
2.1416013
2.1101017
1.9572619
1.688412
1.3245956
0.89648026
0.43615672
-0.030027278
-0.48475078
-0.918368
-1.3246623
-1.6966684
-2.0249386
-2.2989295
-2.5104227
-2.6568785
-2.7427976
-2.7784224
-2.7766879
-2.750239
-2.7099695
-2.6652977
-2.6252313
-2.598938
-2.5949032
-2.6182592
-2.6663048
-2.7230296
-2.7549703
-2.712243
-2.538396
-2.189442
-1.6566092
-0.9820903
-0.2569121
0.40259865
0.8913685
1.1482877
1.1701233
1.002823
0.7181084
0.38785937
0.06583827
-0.21956141
-0.4626377
-0.67145854
-0.8573568
-1.0271802
-1.1808691
-1.3141587
-1.423808
-1.5119978
-1.587534
-1.66343
-1.7523013
-1.8619401
-1.9930506
-2.1396785
-2.291298
-2.4349194
-2.55628
-2.640463
-2.672975
-2.641891
-2.540678
-2.370602
-2.1416125
-1.871122
-1.5807345
-1.2916071
-1.0197209
-0.77277046
-0.55007327
-0.34563315
-0.15287969
0.031285062
0.20509773
0.36374363
0.50332904
0.6250483
0.73758
0.8565082
1.0007219
1.1869031
1.4239422
1.7091855
2.0278866
2.356291
2.6676002
2.9389334
3.156858
3.3195496
3.4350317
3.516583
3.57747
3.627137
3.6699579
3.7062767
3.7345226
3.7531426
3.761695
3.7611578
3.7538037
3.7428443
3.731771
3.7233248
3.7183516
3.7151885
3.7102487
3.6999135
3.682924
3.661752
3.6415486
3.6263974
3.6142373
3.5930643
3.5409894
3.4311676
3.240146
2.9561553
2.58365
2.1422925
1.6614159
1.1729267
0.7054434
0.28077042
-0.08778138
-0.39598435
-0.6482432
-0.8556685
-1.0326356
-1.1926631
-1.3449237
-1.4923904
-1.6319437
-1.7562835
-1.8572426
-1.9297851
-1.9754937
-2.004025
-2.031329
-2.074573
-2.1453269
-2.243793
-2.356844
-2.4610941
-2.5299158
-2.5414968
-2.484827
-2.361885
-2.1861851
-1.9789686
-1.7643853
-1.5646055
-1.395739
-1.2656513
-1.1745342
-1.1179173
-1.0903099
-1.0870627
-1.1031191
-1.1295434
-1.1506232
-1.1446217
-1.089611
-0.9729241
-0.8000249
-0.59767205
-0.40820333
-0.27598375
-0.23124099
-0.2783032
-0.39369142
-0.53526455
-0.6584808
-0.7323682
-0.7481583
-0.7177313
-0.66437507
-0.61151755
-0.57459295
-0.55822456
-0.5578776
-0.56374586
-0.5649416
-0.55301565
-0.52447194
-0.48199862
-0.434043
-0.392614
-0.36985487
-0.37454167
-0.4097284
-0.47218361
-0.5534451
-0.64179707
-0.7244795
-0.78971845
-0.82829076
-0.8342261
-0.80427593
-0.73626757
-0.62723386
-0.4726812
-0.26801124
-0.011943025
0.2896014
0.62138414
0.9601977
1.2797401
1.5572517
1.7791128
1.9429897
2.0557616
2.1284683
2.17079
2.1875072
2.1780984
2.1388884
2.0658724
1.9562644
1.8079277
1.6175075
1.3792115
1.0860107
0.73358643
0.3255691
-0.12247887
-0.58276486
-1.0197527
-1.3983544
-1.6926934
-1.8918041
-2.000293
-2.0346987
-2.0181093
-1.9754354
-1.930244
-1.9027009
-1.9078919
-1.9541248
-2.0409381
-2.1564348
-2.274113
-2.3510208
-2.3307831
-2.15487
-1.7820593
-1.2103204
-0.4906691
0.2769978
0.968661
1.4729395
1.723734
1.7146957
1.4917554
1.1306443
0.71071905
0.29421574
-0.0846397
-0.42012718
-0.72704333
-1.0278215
-1.3393538
-1.6637346
-1.9852656
-2.2737055
-2.492124
-2.607067
-2.598441
-2.4662151
-2.231235
-1.929047
-1.5986598
-1.2709658
-0.96210164
-0.67456925
-0.40474463
-0.15203755
0.075548135
0.26233885
0.39174947
0.45545852
0.46059453
0.43133745
0.40356532
0.41419408
0.48949158
0.63736415
0.84669507
1.093272
1.3488632
1.5893053
1.7990133
1.9716189
2.1079855
2.2132535
2.2942398
2.3579116
2.4109619
2.459911
2.5109112
2.5688052
2.6358032
2.7107103
2.7894206
2.8665385
2.9372
2.9980965
3.0473342
3.0836155
3.105595
3.1120152
3.1025753
3.0789607
3.04531
3.0076904
2.9726784
2.9456563
2.9295845
2.924741
2.9293442
2.9405081
2.9549592
2.9693253
2.9802678
2.9848077
2.9808924
2.967874
2.9465353
2.9186509
2.8864849
2.8527262
2.82098
2.7963207
2.7849696
2.792249
2.8186636
2.855152
2.8797648
2.858532
2.7523444
2.5290961
2.1769822
1.7127306
1.1796952
0.63541836
0.13397028
-0.28883904
-0.6213807
-0.8725124
-1.062145
-1.2114009
-1.3361135
-1.4446971
-1.5394084
-1.6193091
-1.6834203
-1.7330209
-1.7724904
-1.8085233
-1.8480147
-1.8954235
-1.9507587
-2.0092602
-2.0632198
-2.1053543
-2.1321898
-2.1456969
-2.152185
-2.1588652
-2.169709
-2.1825972
-2.189112
-2.1770744
-2.1347759
-2.0553253
-1.9397424
-1.797961
-1.6474012
-1.5091443
-1.4022549
-1.3376487
-1.3137368
-1.3160589
-1.3217343
-1.307269
-1.2564758
-1.1652462
-1.0417606
-0.90315264
-0.7710141
-0.6677045
-0.6138796
-0.6263292
-0.7150369
-0.8792134
-1.1032124
-1.3541945
-1.5839007
-1.7365303
-1.7628562
-1.6371989
-1.3702974
-1.01039
-0.6290035
-0.29572192
-0.05297426
0.09719375
0.18845469
0.27103838
0.3882258
0.5592573
0.7745781
1.0028301
1.2045572
1.3465979
1.4126768
1.4080508
1.357947
1.3006048
1.2764356
1.315697
1.4280019
1.5971001
1.782971
1.9307235
1.983489
1.895775
1.6445509
1.2362851
0.7082284
0.12220445
-0.44933692
-0.9418597
-1.3154724
-1.5632552
-1.7084206
-1.7929517
-1.8635931
-1.9602772
-2.108738
-2.3162537
-2.5690184
-2.8309853
-3.0455165
-3.1417937
-3.047459
-2.70718
-2.1037796
-1.2750081
-0.31719047
0.6305036
1.4197019
1.9332684
2.116166
1.9841988
1.6091989
1.0901735
0.5240097
-0.01428069
-0.47896808
-0.8515543
-1.1339939
-1.3408098
-1.4919989
-1.6077074
-1.7052823
-1.7985448
-1.8979924
-2.010305
-2.136688
-2.2712805
-2.4014397
-2.5106792
-2.583319
-2.6088772
-2.5845468
-2.5152302
-2.411627
-2.2872322
-2.1550376
-2.0246644
-1.9006695
-1.7826164
-1.6669459
-1.5499097
-1.430264
-1.3104026
-1.1951793
-1.0886114
-0.9896788
-0.8892279
-0.77013713
-0.6119623
-0.39920998
-0.13000172
0.17930083
0.49668413
0.78398895
1.0093803
1.1573507
1.2323701
1.2556075
1.2569991
1.2660465
1.3042854
1.381304
1.4949349
1.6348866
1.7879452
1.9425361
2.091174
2.2306433
2.3607557
2.4826608
2.5972805
2.7040777
2.8003597
2.8814337
2.9418302
2.9773784
2.9873502
2.9756153
2.950039
2.920152
2.8940604
2.8760564
2.866044
2.860835
2.856311
2.8491247
2.8371859
2.819205
2.7942133
2.761843
2.7233553
2.682587
2.6457348
2.619333
2.60668
2.6038818
2.5972536
2.563784
2.4756837
2.3085585
2.0508316
1.7104838
1.315269
0.9049808
0.5182554
0.17960027
-0.10740036
-0.3578574
-0.5960706
-0.8437346
-1.1110841
-1.3938682
-1.6759943
-1.9356835
-2.1525667
-2.3137257
-2.417412
-2.4736478
-2.5014331
-2.5231514
-2.557921
-2.6163406
-2.698616
-2.7964492
-2.8972933
-2.9887688
-3.06159
-3.1106117
-3.1345494
-3.1350198
-3.1151748
-3.0780334
-3.0249228
-2.95484
-2.8654857
-2.7559319
-2.6297693
-2.4968624
-2.3720875
-2.270787
-2.2025387
-2.1662378
-2.1493418
-2.132228
-2.095846
-2.0289116
-1.9310942
-1.8109816
-1.6805335
-1.5494295
-1.4222511
-1.2993608
-1.1801186
-1.0659909
-0.96156377
-0.87291485
-0.80433196
-0.7552096
-0.7188232
-0.6837618
-0.637593
-0.57140106
-0.483553
-0.3814175
-0.28043652
-0.20051986
-0.160133
-0.16898404
-0.22116911
-0.29159725
-0.33845246
-0.3126571
-0.17227311
0.1029526
0.502558
0.9858242
1.492049
1.9569714
2.329266
2.5813627
2.7117016
2.7392247
2.6934133
2.6036499
2.4907677
2.3625112
2.2136738
2.030618
1.7985377
1.5087402
1.1631188
0.7742199
0.36129144
-0.055614065
-0.46085218
-0.8457197
-1.2076422
-1.5467004
-1.8611268
-2.1437566
-2.3811266
-2.5560157
-2.652931
-2.664736
-2.5977364
-2.4724994
-2.3187435
-2.1648526
-2.025451
-1.8926882
-1.7367202
-1.5175102
-1.2045627
-0.79625046
-0.32902473
0.12933262
0.5004211
0.720506
0.7589034
0.6225973
0.3479001
-0.014511138
-0.41406354
-0.8098797
-1.1745056
-1.492947
-1.7590656
-1.9716372
-2.1320803
-2.2446883
-2.3183918
-2.3676805
-2.4104621
-2.4624557
-2.5299888
-2.6043718
-2.6608188
-2.663523
-2.5764275
-2.3767762
-2.066414
-1.6754812
-1.2557254
-0.8653535
-0.5513723
-0.3363456
-0.21429063
-0.15653318
-0.124391735
-0.083068535
-0.011338765
0.09557664
0.22911358
0.37361187
0.512858
0.63506985
0.73547274
0.81634825
0.8850597
0.95111996
1.023624
1.1100181
1.2162262
1.3471388
1.5062011
1.6936246
1.9040823
2.1256464
2.341434
2.5339422
2.6902509
2.8054965
2.8829932
2.9314227
2.9609818
2.9803162
2.9950347
3.0076704
3.0185554
3.0270035
3.0322895
3.0341504
3.0328574
3.0290987
3.0238473
3.0182133
3.013205
3.0094345
3.006941
3.0053203
3.0041575
3.003527
3.0041907
3.0073063
3.013777
3.0236712
3.0361214
3.0498064
3.063714
3.0776455
3.0920877
3.107538
3.123806
3.139889
3.1546428
3.167818
3.1805713
3.1946487
3.210159
3.2227952
3.2219853
3.1912553
3.1111379
2.9637876
2.7378278
2.4321392
2.0578973
1.6385076
1.2070647
0.8011262
0.455458
0.19470887
0.02852583
-0.049281545
-0.05772518
-0.023303686
0.026009431
0.066428944
0.08294779
0.07182749
0.039879538
0.0003747974
-0.032937694
-0.05112649
-0.052519355
-0.04179858
-0.026984328
-0.01618721
-0.015424798
-0.027712159
-0.052932296
-0.0880291
-0.12752886
-0.16467397
-0.19320294
-0.20924626
-0.21246536
-0.20581633
-0.19404384
-0.18170339
-0.17169355
-0.16487354
-0.16066764
-0.1580703
-0.15640384
-0.15549587
-0.15538418
-0.15594707
-0.156837
-0.1578137
-0.15922894
-0.16224362
-0.16849291
-0.17928022
-0.19473529
-0.21346053
-0.23293303
-0.2504772
-0.2642672
-0.27380252
-0.27965337
-0.28275844
-0.2838255
-0.28324556
-0.2814873
-0.2795342
-0.27888465
-0.28098765
-0.28646132
-0.29465914
-0.30394283
-0.31254128
-0.31946647
-0.3249104
-0.32989547
-0.33544627
-0.34185776
-0.34854868
-0.35457477
-0.3594117
-0.36342773
-0.36769062
-0.37323266
-0.3802983
-0.3881255
-0.3954437
-0.40135494
-0.4059753
-0.4103693
-0.41580772
-0.4228659
-0.43100405
-0.43893972
-0.4455616
-0.4507357
-0.45542088
-0.46099907
-0.46828747
-0.47693714
-0.48566014
-0.4931408
-0.4989874
-0.50403565
-0.50977105
-0.51726824
-0.52639997
-0.53589183
-0.5442089
-0.55065316
-0.5558841
-0.5614747
-0.5688021
-0.57805586
-0.5880766
-0.59716535
-0.6043011
-0.60989445
-0.615524
-0.6228279
-0.6323302
-0.6430479
-0.65318483
-0.66143745
-0.6679776
-0.6743866
-0.68256235
-0.6933591
-0.7059317
-0.71828336
-0.7286631
-0.73682773
-0.74425495
-0.75312954
-0.7647988
-0.7787801
-0.7930379
-0.8053561
-0.81483155
-0.822412
-0.8300926
-0.8393613
-0.8500432
-0.86044186
-0.868748
-0.8747188
-0.8803582
-0.88900304
-0.90335643
-0.9237954
-0.9481498
-0.97316486
-0.9966535
-1.0187926
-1.0415562
-1.0665399
-1.092573
-1.1148329
-1.126455
-1.122234
-1.1026967
-1.0763243
-1.0581899
-1.0644519
-1.1036867
-1.1675997
-1.2249084
-1.2226119
-1.0977312
-0.799051
-0.3125812
0.32087365
1.0075158
1.6247509
2.0582151
2.2347493
2.1380553
1.8045412
1.3061708
0.729752
0.15908597
-0.3379629
-0.7177858
-0.96495676
-1.091103
-1.128232
-1.1177446
-1.0983573
-1.0967842
-1.1237254
-1.175359
-1.2385223
-1.2970514
-1.3373317
-1.3521141
-1.342222
-1.3158355
-1.285337
-1.2625711
-1.2543774
-1.2604872
-1.2748742
-1.2897822
-1.3001137
-1.3057308
-1.3106089
-1.319736
-1.3358958
-1.3582844
-1.3834909
-1.4077759
-1.4289211
-1.446552
-1.4611073
-1.4726129
-1.4804169
-1.4841161
-1.4847806
-1.4852421
-1.488919
-1.4978403
-1.5112584
-1.5259548
-1.5381937
-1.5460656
-1.5506516
-1.5552691
-1.5633972
-1.5767213
-1.5945531
-1.6147838
-1.6353108
-1.6545103
-1.6701552
-1.677553
-1.6685444
-1.6327562
-1.5612319
-1.4509948
-1.3082435
-1.1483395
-0.99228644
-0.8611018
-0.7704733
-0.7278188
-0.7324103
-0.7775172
-0.8527461
-0.9453639
-1.0408118
-1.1237344
-1.1806238
-1.2035939
-1.1932018
-1.1582214
-1.1119654
-1.0668324
-1.0297974
-1.0010926
-0.97669286
-0.95332897
-0.93348384
-0.9274832
-0.9503288
-1.0125875
-1.107626
-1.2008665
-1.2285894
-1.1120639
-0.78641814
-0.23412247
0.49447623
1.2890651
2.0165637
2.569423
2.8992977
3.0214999
2.9947472
2.891785
2.7748487
2.6823583
2.6269393
2.6018293
2.5915053
2.5819583
2.5668552
2.5480225
2.5313597
2.5211828
2.5163717
2.5103807
2.4948368
2.4644086
2.4199674
2.368142
2.3176181
2.2745314
2.2397268
2.2092507
2.1773665
2.140024
2.0967288
2.0500045
2.0032585
1.9587319
1.9168265
1.8769419
1.838946
1.8040689
1.7745122
1.7520369
1.7365277
1.7255132
1.7149622
1.7008885
1.6808368
1.6544203
1.6227338
1.5872186
1.5488375
1.5080702
1.4655708
1.4228251
1.3821309
1.345751
1.3147693
1.2884371
1.2644781
1.2401905
1.2137098
1.1847055
1.1541562
1.1234345
1.0933317
1.063621
1.0333791
1.0017978
0.968914
0.93573344
0.90365064
0.87355727
0.845241
0.81748444
0.78882104
0.7584673
0.7268111
0.6951267
0.664709
0.6360001
0.60828537
0.580166
0.55050796
0.5192302
0.48738718
0.45647824
0.42743585
0.3999719
0.3727364
0.34421256
0.31375793
0.28207347
0.25075808
0.22122952
0.1937349
0.167137
0.13965799
0.110101014
0.07870949
0.047046296
0.016944226
-0.010770732
-0.036899317
-0.06336804
-0.091910996
-0.12283549
-0.15475234
-0.18549693
-0.21363205
-0.23949426
-0.26502398
-0.29244635
-0.32269552
-0.35470113
-0.38607824
-0.4147783
-0.44056287
-0.46524465
-0.49147063
-0.5208571
-0.55279356
-0.5848002
-0.6142361
-0.6401861
-0.6641869
-0.6892253
-0.71765405
-0.7494862
-0.78231156
-0.81294644
-0.83969015
-0.8635971
-0.88781494
-0.91538835
-0.94705915
-0.9806562
-1.0125654
-1.040282
-1.0642478
-1.0876243
-1.1140778
-1.1451029
-1.1788182
-1.211158
-1.2386838
-1.2610579
-1.2814014
-1.3041937
-1.3321275
-1.3641547
-1.3961576
-1.4238219
-1.4457183
-1.4644082
-1.4847344
-1.5104612
-1.541671
-1.5748342
-1.6055291
-1.631858
-1.6560509
-1.6829647
-1.7164283
-1.756078
-1.7971416
-1.8335445
-1.8622533
-1.8856776
-1.9100696
-1.9405813
-1.9762466
-2.00871
-2.0264306
-2.0226338
-2.002607
-1.9855474
-1.9983193
-2.062171
-2.1769114
-2.3088627
-2.3887534
-2.323641
-2.0227346
-1.4308922
-0.5575464
0.5134482
1.6423224
2.676396
3.4988158
4.0583744
4.365499
4.4595933
4.3695774
4.0924253
3.6032727
2.891539
1.9996423
1.0355202
0.14499378
-0.5422769
-0.96094394
-1.1261837
-1.1148851
-1.0277897
-0.9526391
-0.94123054
-1.0038689
-1.1183105
-1.2472159
-1.3569711
-1.4310575
-1.473406
-1.5014167
-1.5331408
-1.5757943
-1.6214432
-1.651327
-1.6456871
-1.5935174
-1.4972686
-1.3705274
-1.2303584
-1.0884372
-0.9453734
-0.79081464
-0.60896105
-0.38658318
-0.119850926
0.18267542
0.501689
0.8124704
1.091789
1.3238789
1.5034286
1.6344538
1.7251683
1.7805513
1.795764
1.7539371
1.6304843
1.4032544
1.0646584
0.6300963
0.13789222
-0.3604858
-0.81634593
-1.1983331
-1.4973685
-1.7176864
-1.8574955
-1.890462
-1.7618849
-1.408162
-0.7958841
0.036955915
0.96203446
1.7814953
2.2864385
2.3301747
1.8840631
1.0509374
0.030030508
-0.9511259
-1.70816
-2.1460114
-2.2666574
-2.1448212
-1.8894447
-1.6077983
-1.3809898
-1.2523228
-1.2270339
-1.2813272
-1.3772495
-1.4779525
-1.5577312
-1.6041753
-1.6143177
-1.5895039
-1.5328383
-1.449707
-1.3490827
-1.2430352
-1.1437335
-1.0594792
-0.99224895
-0.93831503
-0.8916007
-0.8479104
-0.80788946
-0.7773967
-0.76524246
-0.7792001
-0.82136667
-0.88360316
-0.94378084
-0.9643983
-0.8960986
-0.68823224
-0.30594197
0.25110266
0.93690336
1.6628591
2.320125
2.814315
3.0982776
3.1878583
3.153114
3.0886016
3.0748947
3.1463284
3.277355
3.3929188
3.3988256
3.2196054
2.8279762
2.2538364
1.5703329
0.8652988
0.21248998
-0.344919
-0.7946831
-1.1449043
-1.4115592
-1.6105359
-1.7551497
-1.8565493
-1.9244299
-1.967228
-1.9920439
-2.0045195
-2.0087645
-2.0075471
-2.0029552
-1.9973528
-1.99408
-1.9973484
-2.0112002
-2.0379424
-2.0768538
-2.123955
-2.1731484
-2.2182848
-2.255094
-2.2819395
-2.2990813
-2.3072035
-2.3065715
-2.2978094
-2.2840123
-2.2724442
-2.2734647
-2.2952297
-2.335142
-2.3719287
-2.3638716
-2.2574143
-2.0057545
-1.5907588
-1.0374311
-0.41177133
0.19937551
0.7182827
1.1025327
1.3560205
1.5214388
1.6598089
1.8273609
2.058916
2.3618164
2.719143
3.0982347
3.4606764
3.77137
4.0053415
4.1511984
4.2105365
4.193855
4.1151404
3.9880056
3.8251858
3.6408672
3.4533212
3.2850823
3.1595252
3.0949616
3.098864
3.1649108
3.274477
3.4024844
3.5256226
3.629595
3.7121985
3.7810462
3.8475087
3.9202185
4.001211
4.085891
4.1658845
4.2327394
4.2806916
4.307816
4.315917
4.3097997
4.296239
4.2825036
4.2742896
4.2734714
4.276739
4.2763443
4.2634616
4.2333302
4.190004
4.14791
4.127952
4.1476893
4.207838
4.2800503
4.3024445
4.188431
3.8502347
3.231682
2.3379502
1.24759
0.09756148
-0.9559809
-1.786068
-2.3319042
-2.6088881
-2.6891012
-2.6636627
-2.605696
-2.5499191
-2.494545
-2.4196806
-2.3098161
-2.1685889
-2.0200033
-1.8978397
-1.8303946
-1.8287797
-1.8838499
-1.9716388
-2.0629807
-2.1319692
-2.160044
-2.1358652
-2.053461
-1.9113997
-1.7143185
-1.4760325
-1.2216116
-0.985196
-0.80165654
-0.6934526
-0.6577474
-0.6606375
-0.64350903
-0.54137623
-0.30699548
0.06911825
0.55153626
1.0686568
1.5331523
1.865487
2.012394
1.956194
1.7149004
1.3350894
0.8798754
0.41452342
-0.0071782707
-0.35256666
-0.6136811
-0.804521
-0.9532668
-1.0916538
-1.2442607
-1.4207349
-1.6135011
-1.801856
-1.9609172
-2.0717947
-2.1287966
-2.140815
-2.126669
-2.1068835
-2.0958807
-2.0980463
-2.108928
-2.1201975
-2.1253989
-2.1235197
-2.1187706
-2.116835
-2.119453
-2.1199567
-2.102057
-2.0429041
-1.9196904
-1.7175444
-1.4358823
-1.0908267
-0.7125005
-0.33756825
0.0008666502
0.2824497
0.5040061
0.6770684
0.81962085
0.9462234
1.061538
1.1603711
1.233827
1.2780274
1.3006278
1.3215142
1.3669883
1.4600648
1.6115098
1.8158356
2.0538762
2.3002727
2.5320268
2.7343893
2.9023921
3.0387087
3.1497374
3.2417016
3.3178482
3.377197
3.4149215
3.4242442
3.3994842
3.3394856
3.2503014
3.1458554
3.0453649
2.9667897
2.9169161
2.880889
2.8162174
2.6570575
2.332336
1.7951535
1.0523347
0.17734571
-0.70587444
-1.4650413
-2.007618
-2.3108714
-2.421742
-2.4308736
-2.4342597
-2.4961743
-2.6238508
-2.7613611
-2.806423
-2.6475081
-2.2103074
-1.4961185
-0.5948487
0.33562502
1.116954
1.6048529
1.7279531
1.4974791
0.9894234
0.31243506
-0.4231194
-1.1252301
-1.7279719
-2.1910746
-2.496869
-2.648192
-2.667595
-2.5954804
-2.4838362
-2.3837328
-2.3282044
-2.3158298
-2.3023312
-2.20671
-1.9346234
-1.4149463
-0.63694054
0.33036005
1.3511064
2.266642
2.9503942
3.346518
3.4759593
3.412856
3.2477856
3.0559433
2.881193
2.7374992
2.6220155
2.5304375
2.4654887
2.433581
2.4315314
2.4316964
2.3765824
2.190844
1.8100392
1.2149835
0.45398694
-0.36180177
-1.0917679
-1.6137601
-1.8639416
-1.8508543
-1.6405728
-1.3240143
-0.9832833
-0.6703381
-0.40268558
-0.17269872
0.037005536
0.23938686
0.43433523
0.6067017
0.7300709
0.7744342
0.7155631
0.54359657
0.26819184
-0.08191466
-0.46549013
-0.83964634
-1.1709776
-1.4427631
-1.6559458
-1.8245218
-1.967991
-2.1037683
-2.2415493
-2.3806653
-2.5108654
-2.616347
-2.6818526
-2.6986003
-2.6675007
-2.5981455
-2.504078
-2.3967938
-2.2815132
-2.1566935
-2.0171344
-1.8586576
-1.6817784
-1.4926994
-1.3015963
-1.1195008
-0.955453
-0.8150465
-0.70051765
-0.6118181
-0.5479793
-0.50835586
-0.49354687
-0.5057469
-0.5481648
-0.62330914
-0.73047334
-0.8633942
-1.0093328
-1.150414
-1.267058
-1.3422256
-1.3646793
-1.3299923
-1.2394013
-1.097844
-0.91263515
-0.6931623
-0.4507184
-0.19732404
0.05661784
0.304665
0.5450223
0.7787252
1.0060048
1.2227345
1.4189676
1.5805212
1.6929494
1.7460146
1.7365806
1.6687295
1.5512317
1.3935158
1.2016875
0.9760312
0.71103317
0.39831975
0.031991616
-0.3852417
-0.8375892
-1.2959023
-1.7229226
-2.0830343
-2.3530412
-2.5294585
-2.629112
-2.6828644
-2.725268
-2.7842164
-2.8739557
-2.9930794
-3.1274626
-3.2567964
-3.3623986
-3.433485
-3.4695718
-3.4783595
-3.4706316
-3.4550912
-3.4356706
-3.412017
-3.3818934
-3.3434544
-3.2961092
-3.2401536
-3.1763144
-3.1060753
-3.0325332
-2.9606361
-2.8958094
-2.8411577
-2.79481
-2.7494
-2.6946836
-2.622387
-2.5308616
-2.4270232
-2.3244414
-2.2383657
-2.1797101
-2.1499827
-2.1383352
-2.1213486
-2.0663195
-1.9389184
-1.7148927
-1.392728
-1.0015724
-0.5989895
-0.25716797
-0.041945294
0.0071589663
-0.112183586
-0.36758438
-0.70628405
-1.0749336
-1.4366131
-1.778909
-2.1109793
-2.4514425
-2.8114934
-3.1788907
-3.5085492
-3.724444
-3.73508
-3.460565
-2.8638136
-1.9738624
-0.8892198
0.24409881
1.2735343
2.0834486
2.6229181
2.9081025
3.002217
2.9851744
2.9261115
2.8668828
2.8178623
2.762871
2.6688194
2.4965532
2.2111826
1.7917527
1.2402687
0.5881157
-0.104566954
-0.760443
-1.3059319
-1.6931322
-1.9123827
-1.990446
-1.9770283
-1.9265676
-1.8819644
-1.8648604
-1.8748469
-1.8972106
-1.9153465
-1.9215958
-1.9210898
-1.9272232
-1.9521968
-1.998725
-2.057929
-2.1143284
-2.1543765
-2.1730804
-2.1749487
-2.1694388
-2.164605
-2.1634483
-2.1649735
-2.1681228
-2.1746452
-2.1880696
-2.2092385
-2.2319674
-2.2431188
-2.2289002
-2.184895
-2.1241038
-2.0771377
-2.081696
-2.1633017
-2.3141742
-2.4799342
-2.5630505
-2.4472563
-2.0391688
-1.313526
-0.3406516
0.7236609
1.6889459
2.3995955
2.7876205
2.8841212
2.7905629
2.6303291
2.5040507
2.4636788
2.5092657
2.603938
2.6977503
2.7502904
2.744718
2.690416
2.6155136
2.5534735
2.529479
2.5519106
2.611687
2.688686
2.761459
2.8153718
2.845795
2.856156
2.853421
2.844256
2.8336346
2.825363
2.8226216
2.8271613
2.837645
2.8489923
2.8541331
2.8476975
2.8293762
2.8044865
2.7809741
2.7646177
2.7556055
2.7488022
2.7375
2.718055
2.6922104
2.6655467
2.6432643
2.6263824
2.6110668
2.5915096
2.5642333
2.530687
2.496242
2.4663153
2.4424438
2.4211452
2.3963974
2.3639698
2.324497
2.2830749
2.2456844
2.2150462
2.1889327
2.162208
2.131188
2.09715
2.0662875
2.045824
2.0387185
2.0404742
2.0403795
2.0268106
1.9937408
1.9448366
1.892832
1.8541404
1.840538
1.8506856
1.8645232
1.8434194
1.7380989
1.5040269
1.1198716
0.6006831
-0.002619331
-0.61947095
-1.184049
-1.6554635
-2.0254037
-2.313016
-2.5519316
-2.7750757
-3.00199
-3.2325737
-3.4494472
-3.6278343
-3.748191
-3.8053274
-3.8097792
-3.7814662
-3.7397456
-3.6956
-3.650091
-3.5994182
-3.5432417
-3.4911368
-3.4625826
-3.478358
-3.5450454
-3.6384218
-3.694313
-3.6153567
-3.2977338
-2.6728146
-1.7474214
-0.620253
0.540607
1.5531896
2.2834861
2.6834648
2.7912712
2.7011952
2.5225422
2.344864
2.2188177
2.15417
2.131361
2.1200118
2.0964897
2.0538182
2.0010405
1.9541798
1.9247284
1.9121832
1.9043686
1.884728
1.8419046
1.7758611
1.6971389
1.6202196
1.5554326
1.5042719
1.4603822
1.414805
1.3617104
1.3010805
1.2372648
1.1751413
1.1168513
1.0611721
1.0054868
0.94851583
0.8916492
0.8379825
0.7899746
0.7476292
0.7086019
0.67015463
0.6315139
0.59487206
0.56425333
0.54302424
0.5318064
0.5282392
0.5287514
0.5311334
0.53617525
0.547291
0.56843996
0.6017564
0.6463701
0.69898933
0.75562644
0.81318563
0.86990845
0.92464197
0.9757988
1.021056
1.058228
1.0868114
1.109078
1.1297394
1.1540987
1.1856633
1.2246431
1.2682675
1.3127067
1.3553591
1.3960717
1.4366397
1.479135
1.5243486
1.571412
1.618728
1.6653847
1.7119204
1.7598616
1.8104079
1.8632934
1.9167079
1.9683727
2.0170054
2.063094
2.1083682
2.1542802
2.2005284
2.2446547
2.2830327
2.3126366
2.332467
2.3437638
2.348953
2.350093
2.3478124
2.3413134
2.329249
2.31076
2.2859592
2.2556643
2.2207637
2.1818335
2.1393595
2.094376
2.0489419
2.0059187
1.9679933
1.936426
1.9102778
1.8866278
1.861744
1.8326118
1.7980077
1.7585785
1.7159864
1.6717418
1.6264898
1.5801436
1.5326351
1.4846083
1.4374567
1.3926307
1.3507211
1.3110163
1.2719033
1.2318811
1.1905193
1.1487219
1.1081421
1.0701542
1.0350645
1.0020506
0.96979445
0.93731654
0.90441495
0.87143785
0.8386156
0.80549765
0.7709604
0.73383695
0.6937578
0.6516071
0.609232
0.56853163
0.5304807
0.49470988
0.45990753
0.4247598
0.38878733
0.3525255
0.3169622
0.2826699
0.2492763
0.21566397
0.18075307
0.14429836
0.10712093
0.07059375
0.035727493
0.0024912022
-0.030153522
-0.063524544
-0.09830327
-0.13406643
-0.16959102
-0.20372245
-0.23619881
-0.26784745
-0.30001047
-0.33360198
-0.36845866
-0.40344217
-0.43723154
-0.46925494
-0.5001005
-0.53110915
-0.5634329
-0.5972189
-0.6314942
-0.6648405
-0.6963917
-0.7264453
-0.7562424
-0.78706604
-0.8192944
-0.8520804
-0.88390374
-0.91362756
-0.94131786
-0.96823055
-0.99595827
-1.0253232
-1.0557855
-1.0857935
-1.1138562
-1.1396037
-1.1640881
-1.1891183
-1.2160964
-1.245168
-1.2752709
-1.305048
-1.3339552
-1.3627424
-1.3929365
-1.4256943
-1.4608701
-1.4970076
-1.5323387
-1.5661119
-1.5992569
-1.6338059
-1.6713623
-1.7115988
-1.751807
-1.7878855
-1.8162047
-1.835173
-1.8455447
-1.8494142
-1.848759
-1.8446691
-1.8379053
-1.8304805
-1.827161
-1.8356694
-1.8648959
-1.921151
-2.0031757
-2.0973873
-2.1756425
-2.1981661
-2.1234066
-1.9238932
-1.6029092
-1.2030572
-0.7983968
-0.46960768
-0.27315158
-0.22117989
-0.2826022
-0.40219492
-0.52510256
-0.61460316
-0.6581965
-0.66386026
-0.65101534
-0.64031607
-0.64525515
-0.6677664
-0.6990196
-0.72484565
-0.73320454
-0.72008395
-0.69107634
-0.6582258
-0.6341786
-0.62684447
-0.63712716
-0.6602981
-0.6895164
-0.7191435
-0.74622643
-0.77005965
-0.79090357
-0.8090875
-0.8249963
-0.839521
-0.8541795
-0.87050176
-0.8890021
-0.9084877
-0.9262936
-0.93943864
-0.9460653
-0.946315
-0.94216156
-0.9363986
-0.9314553
-0.9287233
-0.9286707
-0.93147016
-0.9375425
-0.94753593
-0.9617363
-0.9793713
-0.9984048
-1.0161306
-1.0303193
-1.0402317
-1.0468404
-1.052114
-1.057846
-1.0647869
-1.0725987
-1.0805631
-1.0884521
-1.0968963
-1.1069973
-1.1195017
-1.134162
-1.1497685
-1.1648711
-1.1787095
-1.191719
-1.2052518
-1.2206867
-1.2384957
-1.257863
-1.277083
-1.2944627
-1.3091254
-1.3212061
-1.3313496
-1.3398834
-1.3462399
-1.3490292
-1.3467346
-1.3385954
-1.3251281
-1.3079641
-1.2890553
-1.2695725
-1.2488731
-1.2238109
-1.1885394
-1.1349493
-1.0538857
-0.9371336
-0.7798316
-0.5826474
-0.35301715
-0.10499444
0.14238626
0.3680423
0.55263454
0.6824156
0.7519469
0.7645593
0.7302512
0.661927
0.5716109
0.46796858
0.35544115
0.23446631
0.10225366
-0.04587106
-0.21424273
-0.40387672
-0.6097295
-0.81971896
-1.0165693
-1.1822032
-1.3029698
-1.3734542
-1.3973687
-1.3855562
-1.3524058
-1.312254
-1.2767588
-1.2534658
-1.2454041
-1.251514
-1.267714
-1.2883205
-1.3074703
-1.320304
-1.3238386
-1.3174871
-1.3030574
-1.284038
-1.2642441
-1.246335
-1.2309324
-1.2168192
-1.2020658
-1.185346
-1.166628
-1.1468971
-1.1272552
-1.108146
-1.0893085
-1.0704793
-1.0522753
-1.036528
-1.0257152
-1.0217732
-1.0250075
-1.0337735
-1.0451115
-1.0559214
-1.0639713
-1.0682056
-1.0683373
-1.0641907
-1.0554074
-1.041812
-1.0241665
-1.0046333
-0.98637635
-0.9723288
-0.9638171
-0.95995015
-0.9582459
-0.95614266
-0.95242196
-0.94762886
-0.94328326
-0.9405089
-0.93908453
-0.9375888
-0.9345122
-0.9295038
-0.9238189
-0.91961193
-0.9185498
-0.9207134
-0.92457336
-0.92806965
-0.930026
-0.9308692
-0.9321286
-0.9350866
-0.9395832
-0.9438845
-0.9457422
-0.943848
-0.9385319
-0.931088
-0.92217666
-0.91055644
-0.89331573
-0.8677499
-0.8336757
-0.7942486
-0.7539214
-0.71386665
-0.6670547
-0.59610736
-0.47633508
-0.2841293
-0.00814925
0.34107965
0.7275355
1.0946076
1.3781462
1.5240711
1.5046579
1.3272997
1.0318366
0.6770461
0.32176661
0.008591654
-0.24361734
-0.43705398
-0.58568925
-0.7049231
-0.8043391
-0.8851349
-0.94198227
-0.96812445
-0.96157557
-0.9294415
-0.8877088
-0.85589284
-0.8487518
-0.8691581
-0.90600455
-0.93875915
-0.9471143
-0.92167485
-0.87085354
-0.8201552
-0.8023871
-0.84067667
-0.9299533
-1.0253966
-1.0462683
-0.898897
-0.51359403
0.119536966
0.9351201
1.8094003
2.6043158
3.2171557
3.611291
3.815951
3.9003904
3.9383607
3.97906
4.0343366
4.0837746
4.092299
4.0307827
3.8901744
3.683925
3.4396887
3.186088
2.9416153
2.7104337
2.4855778
2.2563498
2.01534
1.76172
1.500193
1.2375872
0.9801412
0.7335883
0.5058593
0.31004158
0.16450183
0.088421434
0.0938535
0.17815447
0.32132572
0.49061263
0.6507489
0.77497905
0.8516606
0.88409024
0.8851441
0.8706413
0.85483384
0.8490877
0.8626537
0.9037328
0.9796869
1.0962781
1.2564788
1.4594954
1.7003998
1.970451
2.2580283
2.550162
2.8348002
3.1037607
3.3555431
3.5962524
3.8369436
4.087446
4.3493767
4.6124873
4.8570514
5.061298
5.209887
5.2992206
5.3376236
5.3410697
5.326889
5.3083787
5.29249
5.281089
5.2743597
5.2738314
5.2828245
5.3037205
5.3334827
5.3602314
5.3636894
5.3207707
5.2148986
5.044973
4.8287387
4.597056
4.3800154
4.190772
4.0150256
3.811791
3.5259807
3.1083508
2.5355937
1.8232821
1.0266843
0.22849338
-0.48294234
-1.0376874
-1.4022071
-1.5850061
-1.6285267
-1.5914512
-1.5289855
-1.4784878
-1.4545945
-1.4536737
-1.4638178
-1.474918
-1.4842613
-1.4960308
-1.5164161
-1.5479712
-1.5866668
-1.6231904
-1.6475594
-1.6542474
-1.6448396
-1.6268104
-1.6093715
-1.5989573
-1.5968336
-1.5997711
-1.6028314
-1.6022962
-1.5971105
-1.5884639
-1.5783516
-1.5683603
-1.5594195
-1.5523659
-1.5485637
-1.5498781
-1.5578985
-1.572932
-1.5934894
-1.6166544
-1.639134
-1.6583624
-1.6730342
-1.6828644
-1.6879216
-1.6881566
-1.6835532
-1.674789
-1.6638042
-1.6536354
-1.647361
-1.6467105
-1.6512389
-1.6586695
-1.6662377
-1.6721966
-1.6765361
-1.6805233
-1.6854802
-1.6917071
-1.6982931
-1.7038853
-1.7078025
-1.7106446
-1.7139314
-1.7190315
-1.7261823
-1.7343533
-1.742077
-1.7486326
-1.7546389
-1.7614789
-1.7698426
-1.7784449
-1.7840358
-1.783067
-1.774215
-1.7601318
-1.7468585
-1.7404404
-1.7419254
-1.7432702
-1.7269315
-1.6707656
-1.5575035
-1.3853488
-1.1745586
-0.96567243
-0.80869025
-0.74709237
-0.80317956
-0.9703717
-1.2150642
-1.487262
-1.7362132
-1.925199
-2.0398579
-2.0875165
-2.089311
-2.0696542
-2.0475845
-2.0324752
-2.0242634
-2.0168936
-2.0031292
-1.9788345
-1.945111
-1.9075087
-1.8728406
-1.8453264
-1.8241673
-1.8039559
-1.7778805
-1.7422218
-1.6998957
-1.6610423
-1.6396492
-1.6464734
-1.6799307
-1.7180994
-1.7162162
-1.6140467
-1.3548425
-0.9116029
-0.30920532
0.37170154
1.0161401
1.5139242
1.796984
1.8566245
1.7354527
1.5026611
1.2269847
0.9581349
0.7202088
0.514885
0.32998583
0.14915948
-0.040474597
-0.24446702
-0.46104258
-0.6833977
-0.90198636
-1.1053232
-1.2796764
-1.4093965
-1.4794556
-1.4802192
-1.4126226
-1.2909981
-1.141457
-0.99570155
-0.88235754
-0.8190761
-0.80819494
-0.83714324
-0.8831083
-0.9203977
-0.9282813
-0.89673424
-0.82791835
-0.7328624
-0.6249875
-0.5135333
-0.39975682
-0.27727816
-0.1360801
0.03173861
0.22691272
0.44082338
0.65736157
0.8585873
1.0323406
1.1788098
1.3130392
1.4617006
1.6546282
1.9137325
2.2431731
2.6246803
3.0205667
3.3843172
3.675337
3.8719356
3.9768262
4.0128927
4.011834
4.0015445
3.9978428
4.003042
4.01014
4.0093374
3.9936965
3.9621627
3.9197373
3.875522
3.8396893
3.8203168
3.8207703
3.8380442
3.862248
3.877239
3.862289
3.7946887
3.6533134
3.4230847
3.099676
2.692878
2.2266555
1.7347924
1.2529402
0.8097089
0.4200413
0.08318796
-0.21419038
-0.49103114
-0.7634695
-1.0380169
-1.3088408
-1.560134
-1.7724465
-1.9302471
-2.0278425
-2.0719347
-2.0804636
-2.078198
-2.0900857
-2.1341064
-2.21589
-2.3270154
-2.4476101
-2.5523796
-2.6182556
-2.631587
-2.5928385
-2.5169928
-2.4286554
-2.3526657
-2.3033648
-2.2772293
-2.2529736
-2.2001092
-2.092693
-1.9219792
-1.7018334
-1.4642055
-1.2468685
-1.0792702
-0.9727543
-0.9186171
-0.8934655
-0.8684843
-0.8186898
-0.7295258
-0.59988606
-0.44174507
-0.27697405
-0.13211542
-0.032204036
0.005047538
-0.026501536
-0.1195881
-0.25467664
-0.4041784
-0.5389188
-0.634779
-0.6770515
-0.6612049
-0.59074575
-0.4742718
-0.32375044
-0.15463817
0.013414797
0.15748745
0.25518796
0.2902698
0.25735715
0.16353485
0.026443915
-0.12995866
-0.28053054
-0.40390152
-0.48636815
-0.5237107
-0.5201634
-0.48482022
-0.42708424
-0.3532774
-0.265637
-0.1632664
-0.043533035
0.09725231
0.2637379
0.4608652
0.69171363
0.9543145
1.2393414
1.5308083
1.8104669
2.0643134
2.2880144
2.4882512
2.6788766
2.8732243
3.075545
3.2747438
3.442673
3.537985
3.5153654
3.33866
2.9946947
2.5028863
1.9155692
1.3066907
0.75170696
0.3063361
-0.007068286
-0.20044954
-0.3092994
-0.3759003
-0.433288
-0.49478787
-0.5513412
-0.57683164
-0.5399645
-0.41924867
-0.2156742
0.042812187
0.30867276
0.5327331
0.6858709
0.7743265
0.8400265
0.943665
1.1367854
1.4354503
1.8085098
2.186863
2.4893901
2.6526008
2.6501243
2.4952278
2.2290924
1.9032073
1.5638076
1.242229
0.9513411
0.68686444
0.43251708
0.16781162
-0.123631455
-0.4481179
-0.8004059
-1.1666962
-1.5298483
-1.8739167
-2.1863244
-2.4580073
-2.6831002
-2.8593912
-2.98939
-3.0807283
-3.1447244
-3.1931484
-3.234571
-3.27212
-3.303799
-3.3251936
-3.3331544
-3.328521
-3.3164515
-3.304184
-3.2974668
-3.2976522
-3.3011377
-3.3016531
-3.2944229
-3.280228
-3.267252
-3.2692456
-3.2997096
-3.3631976
-3.4463053
-3.5120962
-3.5020232
-3.3479261
-2.9927807
-2.4134164
-1.6346194
-0.7261135
0.21740189
1.1033133
1.8625826
2.458787
2.886156
3.1619534
3.3172495
3.387751
3.4059246
3.396162
3.3740613
3.3488271
3.326238
3.310022
3.3013809
3.298114
3.2950017
3.2859316
3.26685
3.2380347
3.204585
3.1749146
3.1578782
3.1596696
3.1816354
3.2197344
3.2657561
3.3097725
3.3428893
3.35933
3.357309
3.338739
3.3082497
3.27203
3.2367296
3.208417
3.1915972
3.188497
3.1988292
3.2199063
3.2466016
3.2707329
3.280099
3.2581851
3.1857367
3.0445502
2.8224397
2.5174096
2.1393528
1.7087519
1.2529553
0.8011286
0.379201
0.0062392857
-0.3067169
-0.5554709
-0.7404733
-0.8652674
-0.93637633
-0.9641466
-0.96331346
-0.95219827
-0.9501423
-0.9735729
-1.0318096
-1.1241922
-1.2400204
-1.3618922
-1.4715416
-1.5559204
-1.610926
-1.6412001
-1.656307
-1.6652628
-1.6719327
-1.6731673
-1.6602291
-1.6227472
-1.5535043
-1.4520308
-1.3255332
-1.186984
-1.0515168
-0.9327793
-0.840441
-0.77918416
-0.74888617
-0.74552745
-0.7624794
-0.7920294
-0.8271655
-0.8636201
-0.9017695
-0.947383
-1.0099767
-1.0982721
-1.2139314
-1.3464477
-1.4724839
-1.5613604
-1.5852802
-1.529962
-1.4005818
-1.2201083
-1.0210694
-0.83504814
-0.68476164
-0.581405
-0.52678514
-0.5176336
-0.54921186
-0.6164625
-0.7125851
-0.8263108
-0.9399371
-1.0300435
-1.0715863
-1.0442704
-0.9388288
-0.7608592
-0.5308713
-0.28029567
-0.043924928
0.15004678
0.28996938
0.38678202
0.47212067
0.58697516
0.7640107
1.0107944
1.3018737
1.5839235
1.791899
1.8690262
1.7825317
1.5303347
1.1386794
0.6537369
0.13047014
-0.3790809
-0.8365063
-1.2245661
-1.5490236
-1.8334587
-2.108291
-2.3975163
-2.7074914
-3.0214825
-3.3021796
-3.5023746
-3.5815666
-3.5236263
-3.3487632
-3.113421
-2.895426
-2.767816
-2.770502
-2.8911207
-3.063667
-3.1868317
-3.1565022
-2.9017491
-2.412148
-1.7463719
-1.0172912
-0.35716072
0.12435053
0.37192824
0.39357683
0.24628194
0.008726058
-0.24581257
-0.46765313
-0.6373479
-0.76209724
-0.86515254
-0.97251284
-1.1017299
-1.2566555
-1.42927
-1.6065643
-1.7784759
-1.9428813
-2.1052945
-2.273326
-2.4481947
-2.6170132
-2.7497349
-2.8032832
-2.7327766
-2.506829
-2.1218226
-1.6096874
-1.0354183
-0.48380914
-0.03856386
0.24011528
0.33206305
0.26159954
0.087734655
-0.11617936
-0.2849911
-0.37775964
-0.38272876
-0.3124257
-0.1934495
-0.055582386
0.07688601
0.19041488
0.28378993
0.36635187
0.45380813
0.5630351
0.70727515
0.8925859
1.1157049
1.3632804
1.6128985
1.8368413
2.0089955
2.113502
2.1516907
2.1433423
2.120421
2.1153286
2.1490421
2.2247975
2.32991
2.4438908
2.5480783
2.6320992
2.695046
2.7423646
2.781194
2.8167071
2.8506181
2.8815882
2.9065557
2.922111
2.9255524
2.9156954
2.893521
2.8624802
2.8281019
2.7967181
2.773578
2.7610788
2.7579415
2.759775
2.760845
2.7563586
2.7444017
2.7268102
2.708576
2.6958039
2.6926253
2.697779
2.7018125
2.6859431
2.6234038
2.4835136
2.2379935
1.8684875
1.3738325
0.77514726
0.11629234
-0.5426024
-1.1389855
-1.6257967
-1.9864086
-2.2390535
-2.4274476
-2.6013343
-2.7960942
-3.020918
-3.260022
-3.4842522
-3.665704
-3.7881236
-3.849873
-3.8607981
-3.8366225
-3.7939334
-3.7468734
-3.7052639
-3.6737652
-3.6521943
-3.6372104
-3.6249793
-3.6136003
-3.6037436
-3.5966778
-3.5904832
-3.576788
-3.5406938
-3.4652674
-3.3394048
-3.1653125
-2.9610133
-2.7553296
-2.5768359
-2.4419255
-2.348071
-2.275989
-2.199994
-2.1018283
-1.9817469
-1.8618342
-1.7792808
-1.7705637
-1.850902
-1.9965513
-2.1392422
-2.1802578
-2.0244784
-1.6232188
-1.0049192
-0.27381
0.42735586
0.97222984
1.2944524
1.4005327
1.352701
1.23627
1.1275713
1.0728109
1.0816522
1.1342834
1.1969178
1.2384956
1.2420124
1.2073215
1.1465296
1.0759516
1.0089662
0.95241195
0.9067567
0.8685507
0.83321035
0.7967587
0.7562608
0.7096446
0.6557552
0.59488416
0.5293058
0.46310917
0.40097246
0.34629515
0.29976976
0.25939572
0.22202076
0.18541951
0.14950323
0.11578841
0.08544319
0.057317533
0.027488846
-0.009177107
-0.056365576
-0.114226066
-0.17917314
-0.24568579
-0.30894184
-0.3666442
-0.41904953
-0.46747807
-0.5125578
-0.5535416
-0.5892088
-0.61964566
-0.6474555
-0.67728996
-0.7138039
-0.75930655
-0.8126732
-0.87027097
-0.92827594
-0.984801
-1.0404612
-1.0971875
-1.1563332
-1.2175082
-1.2789224
-1.338809
-1.396645
-1.4530488
-1.5083165
-1.5606896
-1.6057808
-1.6378695
-1.6524764
-1.6486497
-1.6294651
-1.6003517
-1.5662166
-1.529068
-1.4874982
-1.4382148
-1.3785341
-1.3082169
-1.2295891
-1.1460979
-1.0604614
-0.97374046
-0.8859068
-0.79735607
-0.7101253
-0.6278328
-0.55429
-0.49162948
-0.43903336
-0.3926179
-0.3461826
-0.2921149
-0.22213963
-0.12834208
-0.0051047197
0.1481165
0.32441247
0.5093083
0.68412566
0.83221906
0.94567275
1.029457
1.1009793
1.1848274
1.3044002
1.4733433
1.6898595
1.9360853
2.1830547
2.399656
2.5621688
2.6605048
2.6987872
2.6906495
2.6520693
2.5952616
2.5259237
2.4439175
2.3459034
2.228307
2.089709
1.9323174
1.7622905
1.5886431
1.4206945
1.2646899
1.1210572
0.9839564
0.8438106
0.6918372
0.52429277
0.34405315
0.15853381
-0.02480089
-0.20251559
-0.37641492
-0.55147696
-0.73229015
-0.92066
-1.116029
-1.3179917
-1.5282128
-1.749212
-1.9798207
-2.2099605
-2.4188166
-2.5793772
-2.66895
-2.6814466
-2.6353374
-2.5721908
-2.543824
-2.5902433
-2.7149172
-2.8672857
-2.943032
-2.808895
-2.3499207
-1.5243372
-0.4001767
0.85155815
2.0125878
2.8969862
3.4133298
3.5807252
3.4998775
3.302224
3.1027677
2.9719667
2.9299226
2.9578435
3.0178926
3.0725203
3.097306
3.0852387
3.043515
2.9860797
2.9261558
2.8722281
2.8283868
2.797153
2.7816477
2.784925
2.8068438
2.8411949
2.8759942
2.8976357
2.8967645
2.8723578
2.8315191
2.7851605
2.7423267
2.7065463
2.6759386
2.646271
2.6145306
2.5806897
2.5468776
2.5150583
2.4852397
2.4555893
2.4242637
2.3914943
2.3602831
2.3350282
2.3188753
2.311559
2.3091807
2.306072
2.2975452
2.281834
2.2601051
2.23475
2.207336
2.1777189
2.1448438
2.1084654
2.0703506
2.0339086
2.0023844
1.976877
1.9556172
1.9350423
1.9119369
1.8852191
1.85623
1.8274331
1.8005162
1.7752444
1.7497957
1.722235
1.6920198
1.6604588
1.6298087
1.6016786
1.575902
1.5506743
1.5238303
1.4943461
1.463015
1.4318386
1.4025881
1.3755733
1.3494813
1.3223565
1.2929983
1.2617891
1.2303826
1.2005017
1.1727223
1.1461046
1.1189021
1.0898163
1.0589007
1.027491
0.9972294
0.9689006
0.94190735
0.9147349
0.88604474
0.8556142
0.8244657
0.79411435
0.7654878
0.73829305
0.71126246
0.68307585
0.6532933
0.622644
0.5924824
0.56381786
0.53661644
0.5098592
0.4822899
0.45330846
0.423378
0.3936719
0.36522898
0.33822805
0.31189063
0.28505948
0.25702602
0.22801946
0.19902231
0.17105895
0.1444753
0.118718125
0.09275373
0.06581141
0.03792144
0.009874311
-0.017355151
-0.04329749
-0.06830145
-0.09326161
-0.118970625
-0.14556149
-0.17242935
-0.19867587
-0.22374801
-0.2478147
-0.27162376
-0.2959563
-0.32107335
-0.34654367
-0.37156445
-0.3955349
-0.41847083
-0.44097254
-0.46378264
-0.48725677
-0.5111211
-0.53468025
-0.55731666
-0.57892054
-0.59994954
-0.6210872
-0.6427529
-0.6648112
-0.68667996
-0.70775074
-0.7278153
-0.74719757
-0.76650774
-0.78620136
-0.8062607
-0.8262174
-0.84549284
-0.863806
-0.88136
-0.89868206
-0.91624033
-0.9341134
-0.95194286
-0.9691958
-0.98554224
-1.0010791
-1.0162464
-1.0315055
-1.0470101
-1.0625042
-1.0775113
-1.0916734
-1.1049969
-1.1178358
-1.1306301
-1.143594
-1.1565701
-1.1691521
-1.18098
-1.1919926
-1.202465
-1.2128065
-1.2232703
-1.2337825
-1.2440044
-1.2535806
-1.262392
-1.2706343
-1.2786725
-1.2867815
-1.2949566
-1.3029267
-1.3103546
-1.3170785
-1.3232224
-1.3291022
-1.3349998
-1.340967
-1.3467981
-1.352183
-1.3569314
-1.3611046
-1.3649668
-1.3687949
-1.3726854
-1.376493
-1.3799418
-1.3828254
-1.3851515
-1.3871325
-1.3890316
-1.3909777
-1.3928802
-1.3945014
-1.3956295
-1.3962288
-1.3964617
-1.39657
-1.3967043
-1.3968223
-1.3967263
-1.3962078
-1.3951976
-1.3938111
-1.3922642
-1.3907195
-1.3891754
-1.387474
-1.3854179
-1.3829131
-1.3800328
-1.3769636
-1.3738717
-1.370789
-1.3675958
-1.3641113
-1.3602248
-1.3559729
-1.3515111
-1.347003
-1.3425059
-1.3379358
-1.3331324
-1.3279757
-1.3224714
-1.3167442
-1.310949
-1.3051618
-1.299331
-1.2933186
-1.2870023
-1.2803621
-1.2734936
-1.2665386
-1.2595856
-1.2526109
-1.2455002
-1.2381338
-1.2304722
-1.2225837
-1.2145942
-1.206599
-1.1985978
-1.1904999
-1.1821924
-1.1736219
-1.164832
-1.1559312
-1.1470163
-1.1381062
-1.1291327
-1.119993
-1.1106243
-1.1010492
-1.091358
-1.0816449
-1.0719435
-1.0622063
-1.0523427
-1.0422854
-1.0320389
-1.0216758
-1.0112846
-1.0009091
-0.99052036
-0.98004127
-0.96940356
-0.9585978
-0.94767904
-0.936728
-0.925795
-0.914867
-0.9038806
-0.89277
-0.88151485
-0.8701547
-0.8587606
-0.8473859
-0.8360306
-0.8246451
-0.81316817
-0.80157214
-0.78988266
-0.77816045
-0.7664588
-0.7547881
-0.7431115
-0.7313743
-0.7195444
-0.7076358
-0.6956985
-0.6837836
-0.6719088
-0.660049
-0.64815706
-0.6361991
-0.6241798
-0.6121386
-0.60012275
-0.58815473
-0.5762195
-0.5642778
-0.5522966
-0.54027325
-0.5282378
-0.51623195
-0.5042808
-0.49237746
-0.48049086
-0.4685902
-0.45666808
-0.44474608
-0.43285984
-0.4210348
-0.40927044
-0.39754334
-0.38582638
-0.37410936
-0.36240694
-0.35074836
-0.33915776
-0.327639
-0.3161756
-0.30474487
-0.29333586
-0.28195763
-0.2706333
-0.2593843
-0.24821705
-0.23712084
-0.22607821
-0.2150791
-0.20412882
-0.19324446
-0.18244287
-0.17172962
-0.1610963
-0.15052778
-0.1400134
-0.12955388
-0.11915948
-0.10884137
-0.0986033
-0.08843934
-0.07833886
-0.06829443
-0.058306567
-0.04838212
-0.038528085
-0.02874607
-0.019031424
-0.009377261
0.00022019741
0.009759317
0.019235397
0.028645353
0.03799069
0.047276292
0.056506287
0.06568056
0.07479506
0.08384573
0.09283279
0.10176154
0.11063861
0.11946665
0.12824182
0.13695659
0.14560597
0.15419255
0.1627257
0.17121518
0.17966366
0.18806414
0.19640481
0.20467825
0.21288808
0.22104768
0.2291711
0.23726258
0.24531285
0.25330544
0.2612289
0.26908645
0.27689508
0.2846741
0.29243124
0.30015644
0.30782866
0.31543136
0.32296547
0.33045042
0.3379109
0.3453592
0.35278568
0.36016497
0.3674744
0.3747116
0.38189766
0.3890633
0.39622632
0.4033776
0.4104856
0.41751754
0.4244627
0.43134075
0.43818867
0.44503477
0.4518784
0.45869035
0.46543404
0.47209254
0.478682
0.48524097
0.49180305
0.49837297
0.50492495
0.51142514
0.51786286
0.5242674
0.5306963
0.53720045
0.5437905
0.5504278
0.557048
0.5636029
0.57009244
0.5765649
0.58308464
0.58968854
0.59635997
0.60303617
0.60964215
0.61612535
0.6224678
0.6286682
0.634711
0.6405505
0.6461252
0.6513978
0.6563914
0.6611932
0.6659163
0.6706401
0.6753661
0.68002176
0.68450785
0.68875873
0.6927739
0.6965991
0.7002729
0.7037794
0.70704377
0.7099755
0.71252793
0.71473205
0.71667683
0.7184479
0.7200677
0.72147894
0.7225846
0.7233147
0.7236718
0.72371966
0.7235199
0.7230619
0.72223955
0.72089595
0.71890897
0.71625966
0.7130338
0.70935196
0.7052759
0.7007579
0.6956722
0.6899104
0.68347764
0.6765187
0.6692408
0.6617615
0.65395415
0.6453627
0.63522077
0.62256396
0.6064089
0.5859881
0.5610566
0.5322676
0.501526
0.47212812
0.44848353
0.43535662
0.43679148
0.45504856
0.4898819
0.5383518
0.59522074
0.65388715
0.70770717
0.7513817
0.781927
0.7988153
0.8032487
0.797014
0.78162444
0.75827074
0.7285766
0.69562083
0.66446483
0.64159954
0.633223
0.64290524
0.66971904
0.70794773
0.7488559
0.7839634
0.80836856
0.82251346
0.8315178
0.84240645
0.8604882
0.88636607
0.9146129
0.9344453
0.93217117
0.894918
0.81498456
0.69382775
0.54424596
0.38925055
0.25696647
0.17261459
0.15034086
0.18817395
0.2681717
0.36157396
0.43693584
0.46866393
0.4438382
0.36579946
0.25341624
0.13573018
0.043149006
-0.0020814703
0.0072414046
0.061624773
0.13906841
0.21332651
0.2628035
0.27665502
0.25636703
0.21327938
0.16379465
0.12398543
0.10472271
0.108171076
0.1266465
0.14477327
0.14498958
0.11484757
0.053162128
-0.027985945
-0.10669412
-0.15881748
-0.16636929
-0.12321551
-0.036131017
0.07842563
0.19987884
0.30925283
0.3934674
0.44728804
0.47242883
0.4739743
0.45553195
0.41580078
0.34929588
0.2519411
0.12878609
-0.0014320799
-0.109310135
-0.1652908
-0.15232125
-0.07349976
0.04927852
0.18422465
0.30107042
0.37995952
0.41510475
0.4130452
0.38706315
0.35030657
0.31049925
0.2684216
0.22051923
0.1638992
0.100826845
0.040240604
-0.0045728656
-0.021039888
-0.0026619125
0.04782822
0.11882497
0.19326523
0.25334677
0.28466916
0.2787895
0.23421843
0.15634827
0.05665744
-0.048763867
-0.14140221
-0.2031103
-0.2192501
-0.18192858
-0.09291813
0.03465998
0.17729637
0.30567637
0.39219967
0.41879264
0.38169655
0.29128122
0.16745779
0.033186935
-0.091223255
-0.1915556
-0.26080987
-0.29865566
-0.30983838
-0.30203256
-0.28367412
-0.26229852
-0.24361107
-0.23107684
-0.22566995
-0.2257372
-0.22737594
-0.22578152
-0.2175023
-0.20277417
-0.186671
-0.1780656
-0.1862506
-0.21613389
-0.2637828
-0.3144286
-0.34465924
-0.32934722
-0.25192076
-0.114302546
0.058614556
0.22398008
0.3351529
0.359207
0.28941822
0.14697291
-0.028097752
-0.19187184
-0.3109296
-0.37117848
-0.3789034
-0.35469696
-0.32327622
-0.30349883
-0.30243835
-0.315165
-0.3291338
-0.33037078
-0.3086761
-0.2603549
-0.18847917
-0.10151064
-0.011120174
0.070342764
0.13253923
0.1697415
0.1828633
0.1802834
0.1768927
0.19102861
0.23932219
0.3301083
0.45707017
0.59584606
0.7065028
0.74324137
0.66955674
0.4737335
0.17809974
-0.16283673
-0.4759753
-0.6907745
-0.76068413
-0.67722976
-0.4715954
-0.20315133
0.060393117
0.26307154
0.37338376
0.38645896
0.31770328
0.19286355
0.03916323
-0.119954616
-0.26631966
-0.38627082
-0.46963367
-0.509781
-0.50492835
-0.45987204
-0.387043
-0.30585834
-0.23968862
-0.21043052
-0.23185241
-0.3041496
-0.41247168
-0.5308162
-0.6301078
-0.6871116
-0.6905692
-0.6427027
-0.55659294
-0.45132717
-0.34674314
-0.25882497
-0.1963175
-0.15921488
-0.13984087
-0.12657642
-0.10901762
-0.08235536
-0.04892795
-0.016284524
0.0070918873
0.016117923
0.011385668
-0.001465676
-0.014577747
-0.021233631
-0.018134715
-0.0058455095
0.012285663
0.0318085
0.048591364
0.059604637
0.06317355
0.05900193
0.048171952
0.03310864
0.017329112
0.0047527715
-0.0015524508
-0.0010577552
0.0026293343
0.0011569243
-0.017254252
-0.064214975
-0.14609224
-0.25944144
-0.38933247
-0.51203024
-0.60152084
-0.6374506
-0.61135256
-0.5289381
-0.4080029
-0.27301905
-0.1482204
-0.051163353
0.011251807
0.04271864
0.053204633
0.052217636
0.04289678
0.019814959
-0.02838107
-0.112459324
-0.23490971
-0.38473782
-0.53801656
-0.6651388
-0.7421182
-0.76054615
-0.7309782
-0.677756
-0.6277603
-0.5987476
-0.59292686
-0.5983226
-0.5962375
-0.57030207
-0.5125758
-0.4245159
-0.31365538
-0.18879223
-0.056599796
0.07882149
0.21382207
0.34228632
0.45404375
0.53596425
0.5756016
0.56578314
0.5079215
0.4124323
0.29612467
0.17784917
0.074201435
-0.0034948715
-0.050664183
-0.06961195
-0.06835316
-0.058087256
-0.04973482
-0.05062864
-0.062635444
-0.08239312
-0.10338476
-0.118875384
-0.12460962
-0.120462544
-0.110644884
-0.10240546
-0.10347128
-0.11883205
-0.14789943
-0.18330719
-0.21232972
-0.22095405
-0.19934087
-0.14641982
-0.07138538
0.008890778
0.07560224
0.11446804
0.120211735
0.09739263
0.057573706
0.01427238
-0.022098308
-0.047268722
-0.063191496
-0.07568779
-0.0911425
-0.11369686
-0.1437431
-0.17792103
-0.21043862
-0.23521377
-0.24803844
-0.24791569
-0.23706616
-0.21970323
-0.20020674
-0.18149586
-0.16416001
-0.1464653
-0.1250404
-0.096021906
-0.05655441
-0.006503618
0.0500679
0.104486175
0.1449517
0.16009693
0.14356957
0.09753324
0.032957476
-0.034045678
-0.088411205
-0.12179047
-0.134763
-0.13457826
-0.12996536
-0.12608942
-0.122363746
-0.113921694
-0.095396936
-0.06454856
-0.0237089
0.021438358
0.06465234
0.10168528
0.13123682
0.15416987
0.1719342
0.18541428
0.19481134
0.20023766
0.20215134
0.20094536
0.1957337
0.18310922
0.1568951
0.10953827
0.035034943
-0.06749934
-0.19101892
-0.31998712
-0.4330846
-0.5091019
-0.5343781
-0.5088266
-0.44747862
-0.3761108
-0.3223098
-0.305696
-0.33148864
-0.3898437
-0.4605956
-0.5208707
-0.5524912
-0.5469132
-0.50671464
-0.44366166
-0.37410513
-0.31312385
-0.2693769
-0.24259439
-0.22465377
-0.20352358
-0.1679698
-0.11078075
-0.029515654
0.07444857
0.19678046
0.32964987
0.46006325
0.5688755
0.6325152
0.628195
0.54141045
0.37297785
0.14247179
-0.11401334
-0.35159433
-0.52717185
-0.60894626
-0.5817319
-0.447172
-0.22037086
0.074206784
0.4051476
0.734393
1.017424
1.206469
1.2587826
1.1491055
0.8820385
0.4979764
0.067271486
-0.32784954
-0.6173247
-0.7627965
-0.7641375
-0.6516201
-0.46989608
-0.26277292
-0.064710945
0.10074339
0.21923663
0.2842522
0.29725325
0.26816943
0.2146357
0.15934071
0.12578695
0.13306041
0.19032656
0.292353
0.41809344
0.534123
0.6029662
0.59406203
0.49378225
0.31120542
0.077822134
-0.15886545
-0.34645188
-0.44110227
-0.4202113
-0.29022306
-0.08575797
0.14120907
0.33871484
0.4714827
0.52969164
0.52670646
0.48814595
0.43842664
0.3911834
0.34702423
0.2979479
0.23490323
0.15452626
0.06233761
-0.02859321
-0.102743335
-0.14858532
-0.163221
-0.1529042
-0.1293643
-0.10405476
-0.08334153
-0.066833906
-0.049207073
-0.024108421
0.012051879
0.058243584
0.10956104
0.15998608
0.2057746
0.24793407
0.29269895
0.34963816
0.42778683
0.5308938
0.65345806
0.77945274
0.8851024
0.9455793
0.9434008
0.87477124
0.75041103
0.5899691
0.4127457
0.22990465
0.04275135
-0.15198246
-0.3533523
-0.5496666
-0.718474
-0.83328164
-0.8734202
-0.83211356
-0.7190163
-0.55621094
-0.3698166
-0.18164067
-0.005242127
0.15197739
0.28285208
0.3753211
0.41234285
0.37825826
0.26913282
0.10158385
-0.085834205
-0.24157608
-0.31780347
-0.28748977
-0.15384053
0.05206018
0.28330046
0.4924178
0.6432809
0.7163871
0.7083884
0.62856436
0.4944879
0.32782695
0.15051821
-0.018403925
-0.16495013
-0.2812145
-0.36555195
-0.4220018
-0.45869577
-0.48505482
-0.5083309
-0.5309143
-0.5499189
-0.55952334
-0.554972
-0.53605855
-0.50805426
-0.4793684
-0.45703164
-0.44239014
-0.4294632
-0.40715334
-0.36451814
-0.29666913
-0.2084676
-0.11424538
-0.033643387
0.014716601
0.019390678
-0.019822145
-0.090972714
-0.17253263
-0.23913604
-0.26929128
-0.2526935
-0.19413993
-0.111965396
-0.03133232
0.024804424
0.043245424
0.023714798
-0.02312487
-0.081345044
-0.1362641
-0.17903143
-0.20789416
-0.22650789
-0.24075983
-0.2556937
-0.27359465
-0.29360172
-0.31263146
-0.32699683
-0.33392516
-0.33227217
-0.32210952
-0.30343264
-0.27475688
-0.23255979
-0.17223398
-0.090529956
0.011327344
0.12524328
0.23604934
0.3243657
0.37220672
0.36956668
0.31921467
0.23709673
0.1474203
0.07409226
0.032259
0.023833452
0.038830336
0.061326098
0.076761685
0.077207424
0.062824674
0.039847054
0.016768176
0.00064318406
-0.0051952065
-0.0015783191
0.0076071327
0.017374666
0.02361688
0.02440497
0.020236347
0.013313414
0.00633882
0.0014611227
-0.0001784832
0.0017490882
0.007277438
0.016541712
0.029808873
0.047215167
0.06848362
0.09285799
0.11929893
0.14681214
0.17473128
0.20284848
0.23136936
0.26068857
0.2909566
0.32143188
0.34973374
0.37127835
0.37926048
0.3654216
0.3215549
0.24141884
0.12263103
-0.03183598
-0.21287566
-0.4054746
-0.590116
-0.74524045
-0.85035133
-0.8893292
-0.85371363
-0.7456731
-0.5798432
-0.38261798
-0.18775076
-0.028682632
0.06993419
0.0981178
0.061557952
-0.022149684
-0.12993681
-0.23977663
-0.33549982
-0.40926525
-0.46171954
-0.5000804
-0.5345705
-0.574101
-0.6226081
-0.67743486
-0.73037183
-0.7707918
-0.78941834
-0.7811336
-0.7458199
-0.68712914
-0.60985506
-0.51700896
-0.40773326
-0.2769384
-0.11716551
0.077321365
0.30499488
0.55194217
0.78988475
0.97980016
1.0816716
1.0677515
0.93398124
0.7038325
0.42181474
0.13905598
-0.10237866
-0.27936456
-0.3885169
-0.43979698
-0.44783366
-0.4254348
-0.3811783
-0.32041994
-0.24779344
-0.16926226
-0.0925084
-0.025552964
0.025391154
0.05735739
0.07041102
0.06605121
0.04550654
0.009233146
-0.04205641
-0.10573518
-0.17639455
-0.24661429
-0.30905032
-0.35869262
-0.39416558
-0.4175186
-0.4325759
-0.44247788
-0.44756457
-0.4448617
-0.42973992
-0.399065
-0.35412514
-0.30148605
-0.25084588
-0.21055919
-0.18295927
-0.162059
-0.13527706
-0.08892774
-0.015243833
0.082345456
0.18842237
0.27999297
0.33436888
0.3372503
0.2877519
0.19838415
0.09006636
-0.015424
-0.10177896
-0.1604054
-0.1886265
-0.1863643
-0.15398727
-0.09237319
-0.004614068
0.10190359
0.21428765
0.31465548
0.382636
0.39951986
0.35325682
0.24304949
0.081798054
-0.10536926
-0.28708065
-0.43455553
-0.52959013
-0.5678787
-0.55617553
-0.5052439
-0.42288262
-0.3110825
-0.16879246
0.0014975964
0.18730055
0.3638457
0.49811772
0.5583102
0.5249498
0.39890862
0.20293148
-0.023760863
-0.23558667
-0.3921866
-0.46860245
-0.4617635
-0.39121336
-0.29276177
-0.2060697
-0.16040154
-0.16455935
-0.20541552
-0.25510654
-0.2828282
-0.26589844
-0.1963622
-0.082099624
0.056469623
0.19206776
0.2968561
0.34838408
0.33466753
0.25756663
0.13322614
-0.011223509
-0.14414449
-0.23711585
-0.27156368
-0.2426304
-0.15962885
-0.043142445
0.08062869
0.18694149
0.25890833
0.29099217
0.28829524
0.26208556
0.22378008
0.1804022
0.133696
0.08288059
0.028737903
-0.024174647
-0.06923747
-0.10279391
-0.12926301
-0.1623815
-0.22057432
-0.3179356
-0.45492387
-0.61320317
-0.75752985
-0.8451575
-0.8403107
-0.7285349
-0.52474093
-0.2707595
-0.022624237
0.16755308
0.26776606
0.27405196
0.20803615
0.106851235
0.010902276
-0.04586496
-0.041418288
0.0325451
0.17106757
0.35775733
0.56758577
0.7705565
0.936316
1.0397108
1.066592
1.0180235
0.91055185
0.7713824
0.62986225
0.50887644
0.41986415
0.3629652
0.33098006
0.31429976
0.30438662
0.29499647
0.28185743
0.2621071
0.23443441
0.20010054
0.16426328
0.13653602
0.12975958
0.1567631
0.22614804
0.33901045
0.48825192
0.6607177
0.84076136
1.0131546
1.1640458
1.2803229
1.3490835
1.3590288
1.3043053
1.1892627
1.031038
0.85724103
0.69855326
0.57916677
0.50932384
0.48301926
0.48153275
0.4813693
0.46368426
0.42141864
0.36099556
0.29793885
0.2488822
0.22407821
0.22375527
0.23932534
0.25808135
0.26877654
0.26565158
0.24970593
0.22749422
0.20862225
0.20311534
0.2192954
0.26228493
0.3330361
0.42783278
0.53834784
0.6523678
0.7552468
0.83218133
0.871397
0.8679235
0.8267033
0.7630531
0.69895595
0.6555192
0.64417565
0.66040957
0.6831619
0.6808643
0.6223199
0.488701
0.2824681
0.029855596
-0.2245897
-0.43024728
-0.54554296
-0.55078435
-0.45444015
-0.2908175
-0.10961303
0.039589133
0.12255036
0.12962946
0.075816534
-0.00756583
-0.08535315
-0.13020884
-0.12972414
-0.087491676
-0.018977484
0.055442885
0.11749629
0.15588194
0.16795962
0.15840715
0.13590348
0.10935372
0.08510291
0.06596909
0.051969983
0.041809674
0.034023855
0.02719299
0.019379754
0.0074452246
-0.01302512
-0.046738345
-0.09674251
-0.162217
-0.23713881
-0.3108799
-0.3710592
-0.40777507
-0.41730392
-0.40326065
-0.37437785
-0.33989644
-0.3049653
-0.2685385
-0.22492854
-0.1681733
-0.09685397
-0.016787918
0.059825525
0.11837483
0.1469484
0.1402295
0.100735135
0.037498083
-0.03657904
-0.10733963
-0.16127722
-0.18684135
-0.17562318
-0.12377316
-0.033620536
0.08499956
0.21464343
0.3324444
0.41504386
0.445273
0.41802588
0.34237295
0.23845671
0.13036677
0.038271293
-0.026835116
-0.0642513
-0.08132956
-0.08979668
-0.10218367
-0.12886527
-0.17559764
-0.24166387
-0.31929004
-0.3950947
-0.45368704
-0.48253053
-0.4765048
-0.44060618
-0.3897717
-0.3455243
-0.3298427
-0.3574785
-0.42893478
-0.5270324
-0.6195686
-0.6684997
-0.6429834
-0.53120005
-0.3458619
-0.12108858
0.097626485
0.26579437
0.35009167
0.33408585
0.2198326
0.026562722
-0.2129046
-0.45794305
-0.66749626
-0.80736655
-0.85548913
-0.804395
-0.6614663
-0.44783857
-0.19587441
0.05559066
0.26830256
0.4122517
0.4712068
0.44424418
0.34345326
0.18951938
0.006899397
-0.18065225
-0.35408834
-0.5021081
-0.62200224
-0.7172965
-0.79278827
-0.84943384
-0.8819734
-0.8806645
-0.83614963
-0.7448848
-0.61240464
-0.45283836
-0.28500623
-0.1271931
0.0068213334
0.10903178
0.17611165
0.20738055
0.20323029
0.16471913
0.0942963
-0.0029440606
-0.11840313
-0.24037461
-0.35598403
-0.4540876
-0.5279556
-0.5766302
-0.6044481
-0.61895525
-0.62796676
-0.6367339
-0.6461362
-0.6525627
-0.6496324
-0.63118523
-0.59434146
-0.5412961
-0.47904274
-0.41720313
-0.36503398
-0.32898483
-0.31172898
-0.3126769
-0.32921493
-0.3577701
-0.39426756
-0.43416524
-0.47254145
-0.5045604
-0.5262838
-0.5355322
-0.5324246
-0.5192791
-0.49970135
-0.4769998
-0.45251933
-0.42485103
-0.39076
-0.34791645
-0.29838005
-0.25087988
-0.21991502
-0.22091737
-0.26283625
-0.34146267
-0.43733788
-0.52047074
-0.56082594
-0.54032946
-0.4609211
-0.34478483
-0.22639526
-0.1395762
-0.10475831
-0.12136633
-0.16811922
-0.21107046
-0.21654132
-0.16427189
-0.055513285
0.08780078
0.23281053
0.3497622
0.42347327
0.4573318
0.46918732
0.48197967
0.5133321
0.5680702
0.6363661
0.6981638
0.7320427
0.7246399
0.6762606
0.5999616
0.51465386
0.4359665
0.36978692
0.311692
0.25201842
0.18333548
0.10624381
0.030846419
-0.026264051
-0.047618564
-0.020573229
0.05871045
0.18363245
0.33769688
0.49689093
0.6336351
0.72185355
0.7422297
0.6863989
0.55907834
0.3777108
0.16959116
-0.033405423
-0.20195663
-0.31674948
-0.37370643
-0.38452792
-0.37181744
-0.36056012
-0.36942402
-0.40515098
-0.46147403
-0.5219068
-0.5647118
-0.56858194
-0.51826
-0.40953812
-0.25264728
-0.07264723
0.094197415
0.2079336
0.23489626
0.15770185
-0.017722683
-0.26087928
-0.52269536
-0.7478141
-0.889603
-0.9229986
-0.8509543
-0.7023077
-0.5215884
-0.35422
-0.2327577
-0.16955143
-0.15798523
-0.18013108
-0.21612686
-0.25106227
-0.27756298
-0.2946405
-0.3045335
-0.3092818
-0.30828255
-0.2975185
-0.27060038
-0.22121339
-0.14606348
-0.047172137
0.06748216
0.18542811
0.2929027
0.37857035
0.43609434
0.46431234
0.465058
0.44012696
0.38952294
0.31243286
0.21071687
0.09301956
-0.023152366
-0.11345341
-0.15311372
-0.1256964
-0.030364193
0.11616194
0.28448257
0.44225013
0.5641455
0.63756233
0.6621983
0.645251
0.5958913
0.52218354
0.4314255
0.33259913
0.23846678
0.16513838
0.12835337
0.13768317
0.19148438
0.27566555
0.36765522
0.44409218
0.48846447
0.49486655
0.4664418
0.4103496
0.33303034
0.2389326
0.13324074
0.026230715
-0.06453153
-0.11698087
-0.11222279
-0.043573428
0.07822285
0.22724155
0.37158597
0.48502874
0.5553183
0.58543
0.5878591
0.575522
0.554337
0.5214379
0.46980795
0.39651877
0.30961162
0.22914721
0.1809241
0.18541431
0.2474442
0.35224524
0.47039807
0.5695316
0.62712973
0.63847035
0.61659354
0.58529
0.56897604
0.5837031
0.6319901
0.70219976
0.77197546
0.8147882
0.8082046
0.74168813
0.6210862
0.46742967
0.30978373
0.17483938
0.07794778
0.019800995
-0.010027401
-0.025187962
-0.03494605
-0.04082146
-0.038565204
-0.023383252
0.0053018355
0.04260132
0.08114163
0.11636609
0.15073377
0.19382311
0.25754827
0.34853187
0.461621
0.57844573
0.6726744
0.7202265
0.70988417
0.64905894
0.5615194
0.47782415
0.42302653
0.40766805
0.42608696
0.4617229
0.4952455
0.5106016
0.49669534
0.4460154
0.35339352
0.21736477
0.04427318
-0.14717367
-0.324572
-0.44689992
-0.47657943
-0.39503926
-0.21479364
0.019296912
0.24275942
0.3942488
0.4382228
0.37668404
0.24466665
0.09270764
-0.034228783
-0.111503415
-0.138213
-0.1306418
-0.111224316
-0.09877351
-0.10329978
-0.12574118
-0.16093303
-0.20156854
-0.24135797
-0.27654356
-0.30590776
-0.33004075
-0.35067803
-0.3704291
-0.39254826
-0.42006025
-0.45389533
-0.4905729
-0.5208003
-0.5304536
-0.50447345
-0.43258622
-0.31438738
-0.16121885
0.00625527
0.16363283
0.28884625
0.36627916
0.38819858
0.35455424
0.27264905
0.15717292
0.02971065
-0.08365005
-0.15722391
-0.17237714
-0.123967014
-0.024077645
0.09909711
0.20795526
0.26630074
0.25076914
0.15860148
0.008534006
-0.16583261
-0.32760286
-0.44822052
-0.51441145
-0.528359
-0.5026063
-0.45334864
-0.3954691
-0.34063667
-0.2977504
-0.27410564
-0.27587175
-0.30721122
-0.36826473
-0.45310163
-0.5492244
-0.6397969
-0.7083501
-0.7440824
-0.74522024
-0.71877676
-0.6768851
-0.6315147
-0.5899174
-0.55250126
-0.5135858
-0.46440735
-0.3971729
-0.3088401
-0.20343079
-0.092017874
0.00988858
0.0869725
0.12924485
0.13562019
0.11423429
0.07915505
0.0448866
0.02118809
0.010498708
0.008802179
0.008998964
0.0048249634
-0.0065014334
-0.0237427
-0.042948663
-0.059655067
-0.070903644
-0.076306194
-0.07784928
-0.07860785
-0.08090313
-0.08464983
-0.08663491
-0.08120944
-0.062390275
-0.02678326
0.023752606
0.08094837
0.13136132
0.15998463
0.15507862
0.1123049
0.03640123
-0.060219876
-0.16107012
-0.24963082
-0.31238726
-0.34048122
-0.3305077
-0.28500277
-0.2125085
-0.12654497
-0.04300639
0.023611603
0.063842714
0.07527689
0.06231525
0.034109868
0.0017353427
-0.024555767
-0.037560284
-0.034499105
-0.017152313
0.009354058
0.038604394
0.064837985
0.08395877
0.09342848
0.09155952
0.0770384
0.049295824
0.0097458055
-0.036758665
-0.08134788
-0.11247102
-0.11945612
-0.097338334
-0.05078937
0.0052909376
0.049765542
0.06281022
0.03390655
-0.033393897
-0.12215357
-0.2078037
-0.26641425
-0.28225654
-0.2522329
-0.18615746
-0.10315842
-0.025470855
0.028376216
0.048764907
0.036959443
0.003427647
-0.036628693
-0.068846405
-0.08450799
-0.08313138
-0.07219189
-0.064203165
-0.07205879
-0.10391355
-0.15905884
-0.22628544
-0.28592545
-0.31576407
-0.29931366
-0.23330297
-0.13084845
-0.018328229
0.073156096
0.1182999
0.105842635
0.041415107
-0.055751156
-0.16040139
-0.24964638
-0.3088799
-0.33373407
-0.3286323
-0.30349633
-0.2699335
-0.2376163
-0.21137455
-0.18977351
-0.16600622
-0.13125744
-0.07947969
-0.011507457
0.06362769
0.13120371
0.17635508
0.19035645
0.17494552
0.14289306
0.11463594
0.11216753
0.15193738
0.23840345
0.35975063
0.48744786
0.5812176
0.5997154
0.51458156
0.32280785
0.051700115
-0.24665956
-0.509735
-0.68188876
-0.72834593
-0.64210385
-0.44378662
-0.17634818
0.10377533
0.33823955
0.47972006
0.50314456
0.41143367
0.23364908
0.016668936
-0.18614747
-0.32588002
-0.36687377
-0.29326233
-0.112904906
0.14251637
0.42267483
0.6690914
0.828843
0.8680031
0.7812822
0.5950807
0.36226887
0.1488151
0.015025771
-0.0032866558
0.09270004
0.26388103
0.4454813
0.5689375
0.5852785
0.48087275
0.27996334
0.03433705
-0.19469608
-0.3550608
-0.4175694
-0.3813495
-0.270885
-0.12670295
0.0071300836
0.09519374
0.11930954
0.08133756
-5.6667504e-05
-0.09673541
-0.1794729
-0.22487162
-0.21979937
-0.16344088
-0.06705293
0.04894477
0.16063413
0.24777259
0.2998214
0.31812236
0.3132876
0.2993881
0.28807348
0.28535238
0.2918367
0.3051873
0.32258207
0.34158963
0.35924947
0.37047544
0.3674252
0.34103775
0.28476146
0.19907992
0.09446994
-0.009451213
-0.089347266
-0.12657191
-0.11505617
-0.06497232
-0.00035293913
0.048269358
0.05300247
-0.0038833434
-0.12595244
-0.302171
-0.50912756
-0.71505475
-0.8851825
-0.9879847
-1.0014868
-0.91837126
-0.7485323
-0.51813346
-0.2650507
-0.03158596
0.14388104
0.23439042
0.22939779
0.1361743
-0.022643328
-0.21445668
-0.40320382
-0.5551597
-0.6433782
-0.65115064
-0.5747534
-0.42487454
-0.22564672
-0.01074546
0.18299262
0.32329482
0.39003375
0.3806688
0.3111049
0.21029948
0.10953093
0.030441465
-0.022519374
-0.061323427
-0.10565008
-0.17095438
-0.2595783
-0.35895965
-0.44678968
-0.49976623
-0.50203633
-0.4507076
-0.3572642
-0.24473688
-0.14138277
-0.07253149
-0.052824985
-0.081112705
-0.13985245
-0.19999558
-0.23077013
-0.21158153
-0.141383
-0.040851306
0.054637536
0.108848944
0.099300966
0.02604154
-0.08898565
-0.21085629
-0.3041867
-0.3439552
-0.32128808
-0.24367245
-0.13094367
-0.008902243
0.097773604
0.17174517
0.2067304
0.20743954
0.18558842
0.15345947
0.11769238
0.07601578
0.018384747
-0.067863904
-0.19079547
-0.3473115
-0.5197818
-0.6775007
-0.7832634
-0.8039855
-0.72295326
-0.5499476
-0.32455835
-0.10875359
0.031598542
0.05071884
-0.057818253
-0.2564258
-0.47698638
-0.6469271
-0.7159181
-0.67140275
-0.5376731
-0.3616854
-0.19415449
-0.074376374
-0.023112427
-0.04302648
-0.12325924
-0.24448222
-0.3823717
-0.509565
-0.5976846
-0.6212486
-0.5640478
-0.42634487
-0.22929187
-0.012866386
0.17389446
0.28761005
0.3044264
0.22721782
0.083427854
-0.08486613
-0.23424265
-0.3319535
-0.36369544
-0.33599716
-0.27309868
-0.20874059
-0.17430891
-0.18657404
-0.23975925
-0.30616832
-0.34639308
-0.3255467
-0.22864795
-0.068303116
0.11869384
0.2842395
0.38585103
0.40117177
0.33506128
0.21704566
0.09009783
-0.0050359634
-0.043567255
-0.022816861
0.0408084
0.12085963
0.1906728
0.23019575
0.22899497
0.18659556
0.11145972
0.019057523
-0.07122473
-0.14063342
-0.1767191
-0.17872381
-0.16029905
-0.1471388
-0.16869183
-0.24604131
-0.38082013
-0.5506434
-0.71402264
-0.82323205
-0.8397814
-0.74627084
-0.5507064
-0.28305084
0.013404616
0.29238772
0.5138873
0.65062886
0.69119155
0.6399809
0.51472145
0.34213185
0.15227981
-0.02762152
-0.17851582
-0.29211023
-0.36972877
-0.41788736
-0.44251713
-0.4444608
-0.4185319
-0.35700756
-0.2562413
-0.123047784
0.023070915
0.15410148
0.24294947
0.273833
0.24853857
0.18559842
0.11317022
0.059260987
0.043443833
0.0727494
0.14229782
0.23944435
0.34921762
0.45889783
0.560536
0.6513337
0.7324346
0.80682606
0.8770565
0.94347996
1.0035887
1.0525713
1.0846788
1.0946087
1.078198
1.0322086
0.95362884
0.8393266
0.6868434
0.49659574
0.27494678
0.036859367
-0.19353965
-0.385897
-0.5103974
-0.5468048
-0.4923245
-0.36429542
-0.19558284
-0.024150997
0.11858017
0.21551885
0.2651834
0.27733117
0.26607126
0.2437502
0.21756642
0.18929319
0.15742873
0.12056749
0.0805688
0.044179574
0.022265378
0.026662182
0.06561391
0.13948372
0.23864214
0.34493786
0.43689477
0.49704272
0.51834077
0.5065283
0.47700423
0.44770768
0.4315529
0.43187985
0.44248536
0.45151994
0.44704577
0.42174053
0.37496808
0.31179225
0.2398521
0.16572374
0.09227064
0.017854052
-0.062457714
-0.15421647
-0.2605139
-0.37970454
-0.5048198
-0.6249171
-0.72791135
-0.8038819
-0.8476282
-0.8595579
-0.8447803
-0.8111118
-0.76704204
-0.72035754
-0.67744106
-0.6428599
-0.61899024
-0.60580426
-0.60110533
-0.6012837
-0.60232896
-0.6006993
-0.5938173
-0.5802247
-0.5595537
-0.53241885
-0.5002377
-0.4649538
-0.4286645
-0.3932044
-0.35977292
-0.3287181
-0.29957816
-0.27141103
-0.2433057
-0.21485062
-0.18632911
-0.1585617
-0.13252562
-0.10900107
-0.088435665
-0.071027525
-0.056850974
-0.04582695
-0.037496112
-0.030765241
-0.023889046
-0.014831152
-0.0018942379
0.015692119
0.03753458
0.06229549
0.08822081
0.11369588
0.1375963
0.15936057
0.17886338
0.19623682
0.21175934
0.22584324
0.23906069
0.25211
0.2656655
0.2801532
0.29558188
0.31155735
0.32749936
0.34294403
0.3577496
0.3720864
0.3862375
0.40036234
0.4143887
0.42809466
0.44130316
0.45403722
0.4665214
0.47903186
0.49170616
0.5044513
0.51701355
0.5291591
0.5408356
0.552203
0.5635153
0.57494044
0.5864459
0.5978296
0.60886854
0.6194789
0.62977296
0.63997674
0.65027
0.66066366
0.671
0.6810721
0.69077456
0.7001774
0.7094742
0.71884346
0.72832364
0.7377907
0.74705136
0.75598353
0.7646236
0.77313983
0.78171265
0.79040676
0.7991248
0.8076722
0.8158852
0.82373184
0.8313182
0.8388
0.8462682
0.8536891
0.860941
0.8679137
0.87459624
0.88108575
0.88751394
0.8939466
0.900336
0.906567
0.9125693
0.91841817
0.9243495
0.9306705
0.93761903
0.94525737
0.95346314
0.9620163
0.97072303
0.97950363
0.9884055
0.9975523
1.0070722
1.0170428
1.0274558
1.0381856
1.0489476
1.0592631
1.0684721
1.0758277
1.0806603
1.0825562
1.0814713
1.07773
1.0719056
1.0646269
1.056377
1.0473573
1.0374641
1.0263864
1.0137831
0.9994622
0.983488
0.96617985
0.948018
0.92951196
0.91108406
0.8929978
0.8753251
0.85793513
0.84050083
0.8225393
0.80350435
0.7829193
0.7605062
0.7362544
0.7104033
0.6833645
0.65563357
0.6277299
0.600161
0.5733846
0.5477483
0.5234226
0.50036
0.47831276
0.4569119
0.43578544
0.41467547
0.3935125
0.3724189
0.35163692
0.33140782
0.31185335
0.2929087
0.27433205
0.25577807
0.23689707
0.2174177
0.19719313
0.17621431
0.15460616
0.13261427
0.11057274
0.088841215
0.06771665
0.04735202
0.027723586
0.0086665265
-0.010040636
-0.028589785
-0.04709726
-0.06560866
-0.084131986
-0.1026659
-0.12120423
-0.13972214
-0.15816423
-0.17645179
-0.1945096
-0.21229713
-0.22982377
-0.2471369
-0.26428983
-0.28130925
-0.29818276
-0.31487346
-0.33134958
-0.34760818
-0.36367524
-0.37958404
-0.39534748
-0.41094577
-0.4263384
-0.44149125
-0.45639926
-0.47108775
-0.48559144
-0.49992728
-0.5140803
-0.52801305
-0.5416918
-0.5551092
-0.56828827
-0.5812638
-0.5940559
-0.60665476
-0.6190279
-0.63114446
-0.6429983
-0.6546134
-0.66602665
-0.67726135
-0.6883106
-0.699143
-0.7097262
-0.7200516
-0.73014116
-0.74003226
-0.74975044
-0.759291
-0.768623
-0.77771246
-0.78654796
-0.79515016
-0.8035573
-0.8117976
-0.8198692
-0.8277412
-0.83537686
-0.8427616
-0.8499142
-0.85687464
-0.8636749
-0.870316
-0.87676734
-0.88298887
-0.8889616
-0.89470243
-0.9002528
-0.90564954
-0.9108977
-0.91596687
-0.9208135
-0.9254131
-0.9297794
-0.93395585
-0.9379845
-0.94187593
-0.94560075
-0.94911116
-0.9523761
-0.9554053
-0.9582433
-0.9609386
-0.96350825
-0.96592516
-0.96813744
-0.97010624
-0.9718354
-0.9733701
-0.97476566
-0.9760473
-0.9771917
-0.97814304
-0.97885376
-0.97932005
-0.9795864
-0.9797151
-0.9797413
-0.97964716
-0.9793739
-0.9788642
-0.9781047
-0.9771376
-0.9760318
-0.9748337
-0.9735335
-0.9720708
-0.9703779
-0.96842986
-0.96626407
-0.96395546
-0.96156335
-0.9590882
-0.95646983
-0.9536303
-0.9505307
-0.9472012
-0.94372135
-0.9401644
-0.93654364
-0.93280196
-0.9288515
-0.92463744
-0.9201794
-0.9155598
-0.9108662
-0.90612787
-0.90129364
-0.8962668
-0.89097506
-0.88542414
-0.87969637
-0.8738937
-0.86806417
-0.8621663
-0.85609645
-0.8497635
-0.84315556
-0.8363516
-0.829467
-0.8225714
-0.8156368
-0.8085559
-0.80121773
-0.7935892
-0.78574145
-0.777802
-0.76986396
-0.7619178
-0.7538558
-0.7455477
-0.7369352
-0.728077
-0.7191099
-0.71015215
-0.70121753
-0.69220257
-0.68295866
-0.6733992
-0.66356474
-0.6535976
-0.643642
-0.63374007
-0.6237981
-0.6136514
-0.60318226
-0.5924068
-0.5814682
-0.57053655
-0.55968654
-0.54884106
-0.53782296
-0.5264809
-0.5148007
-0.50292003
-0.49103338
-0.47925326
-0.4675267
-0.45566922
-0.44349548
-0.43095413
-0.41816944
-0.4053566
-0.39266852
-0.38008335
-0.36741567
-0.35444656
-0.34108225
-0.3274262
-0.31371012
-0.30012938
-0.28669947
-0.27323824
-0.2594907
-0.24531056
-0.23076858
-0.21610717
-0.20157023
-0.18722734
-0.17291972
-0.15836988
-0.14338025
-0.12797885
-0.11240495
-0.09694174
-0.08171342
-0.06659394
-0.051297206
-0.035588775
-0.019467719
-0.0031843686
0.012925308
0.028675446
0.0441683
0.05973108
0.0756895
0.09213506
0.10885235
0.12546273
0.14168757
0.15754764
0.1733567
0.18951239
0.20623222
0.2234239
0.24078321
0.25804728
0.27521598
0.29257283
0.31048033
0.32909465
0.34821495
0.36739436
0.38625145
0.40476486
0.42332533
0.44247392
0.46247426
0.48299685
0.5031358
0.5217677
0.5380359
0.55166185
0.56290215
0.57221776
0.5799123
0.585997
0.5903477
0.59298706
0.59422874
0.5945367
0.5941926
0.5930405
0.5905514
0.58622336
0.58007437
0.5728811
0.56595814
0.56057024
0.5573234
0.55590904
0.5553481
0.5545637
0.5529121
0.55035496
0.54721224
0.54372203
0.5397518
0.53487617
0.52875847
0.52153885
0.5139105
0.5067783
0.5007069
0.49554154
0.49049255
0.4846553
0.4776247
0.4697796
0.46202862
0.45518726
0.44942513
0.44417825
0.43858886
0.43215376
0.42510462
0.41822758
0.41223595
0.40714955
0.40214965
0.3960451
0.3880465
0.37831047
0.36785975
0.35791403
0.34908777
0.34101707
0.33267605
0.32315844
0.31236708
0.30111015
0.290519
0.281197
0.27272126
0.2638777
0.25348577
0.24123795
0.22794688
0.21499567
0.20336047
0.19290125
0.18244064
0.17059095
0.15675312
0.1415724
0.12650271
0.112767965
0.10046124
0.08844142
0.075120665
0.059597794
0.042330932
0.024845783
0.008657221
-0.0058332067
-0.019661427
-0.034594122
-0.051875066
-0.07131064
-0.09136767
-0.11024962
-0.12719691
-0.14306873
-0.1597684
-0.17889953
-0.20059729
-0.22338492
-0.24519831
-0.26487058
-0.28300473
-0.30158776
-0.3225968
-0.3465715
-0.37217996
-0.39713067
-0.4198128
-0.44048503
-0.46113938
-0.48411223
-0.5104096
-0.53894323
-0.56726706
-0.59333265
-0.61700636
-0.6402348
-0.6657099
-0.6949553
-0.72718716
-0.7598055
-0.79022455
-0.81774676
-0.84411585
-0.87232596
-0.9045018
-0.9403368
-0.97723234
-1.012103
-1.0435809
-1.0730168
-1.1035383
-1.1378124
-1.1760777
-1.2158742
-1.2537323
-1.2876421
-1.3184942
-1.3494167
-1.383446
-1.4211639
-1.4600278
-1.4960091
-1.5265018
-1.5524697
-1.5783119
-1.6095326
-1.6498067
-1.6994268
-1.7561257
-1.8174535
-1.8825866
-1.9518535
-2.024114
-2.0940042
-2.151621
-2.1860135
-2.191456
-2.1733305
-2.1499882
-2.1483824
-2.1934547
-2.2934358
-2.4252608
-2.5261638
-2.4984512
-2.2327785
-1.6486797
-0.73951095
0.40166888
1.5973
2.643474
3.3844604
3.7641068
3.8300254
3.6964474
3.4917061
3.3159914
3.2216487
3.2146244
3.2688162
3.3446853
3.405892
3.430208
3.4129512
3.3633244
3.2965467
3.226213
3.1604178
3.102267
3.0526698
3.0124636
2.9822009
2.9602292
2.9413056
2.9176202
2.8821275
2.8321977
2.7711964
2.7068582
2.6473339
2.5973077
2.556477
2.5210702
2.4871306
2.453327
2.4215152
2.3948152
2.3746479
2.3588543
2.3421998
2.3189118
2.2855759
2.242562
2.1931977
2.1414561
2.0898652
2.0389738
1.9884307
1.938575
1.8911889
1.8487751
1.812875
1.7826945
1.7551048
1.7261008
1.6928128
1.65481
1.6138976
1.5726051
1.5324417
1.493103
1.4530842
1.4111463
1.36752
1.3239549
1.2825788
1.2444135
1.2086438
1.1731561
1.1359494
1.0964242
1.055672
1.0155983
0.97753555
0.9413422
0.9055907
0.8686553
0.8298963
0.7901068
0.7509264
0.7136645
0.6783919
0.6439348
0.6087405
0.57197875
0.53410196
0.4964873
0.46043876
0.42627886
0.3931675
0.35974348
0.325105
0.28943202
0.25382513
0.21950026
0.18693258
0.155558
0.12421745
0.09199913
0.058874596
0.025689935
-0.0064599984
-0.037007764
-0.0662838
-0.09523934
-0.12474703
-0.15498646
-0.18534191
-0.21486522
-0.24295335
-0.26975054
-0.29600552
-0.32251212
-0.34954485
-0.37668493
-0.40314338
-0.42832994
-0.4522527
-0.4754744
-0.49868256
-0.5221952
-0.5457513
-0.56872123
-0.59056646
-0.6112078
-0.63104755
-0.6506512
-0.6703353
-0.68995404
-0.709027
-0.7270954
-0.7440399
-0.76013386
-0.7758166
-0.79136556
-0.8067069
-0.82148963
-0.83535296
-0.84817904
-0.8601497
-0.87158334
-0.8826901
-0.89342487
-0.9035393
-0.9127778
-0.9210606
-0.9285174
-0.9353615
-0.9417159
-0.94752425
-0.95260704
-0.9568104
-0.960121
-0.9626561
-0.96454763
-0.9658226
-0.96637833
-0.9660687
-0.9648295
-0.9627346
-0.95992863
-0.9564931
-0.95236164
-0.94736034
-0.9413457
-0.9343344
-0.9265139
-0.9181084
-0.90919876
-0.89964527
-0.88918394
-0.87763184
-0.8650491
-0.8517266
-0.8379855
-0.8239314
-0.8093556
-0.7938753
-0.77721643
-0.75943846
-0.7409263
-0.7221362
-0.7032663
-0.6841071
-0.6641961
-0.64317155
-0.6210694
-0.5983388
-0.5755402
-0.55292755
-0.53023195
-0.50683
-0.4821905
-0.45628256
-0.4296437
-0.40302843
-0.37685528
-0.35084942
-0.32416016
-0.29588524
-0.2656403
-0.2337805
-0.20111123
-0.16827795
-0.13528037
-0.101481035
-0.06609899
-0.028810436
0.009993106
0.049496546
0.08910953
0.1289683
0.16984117
0.21243148
0.2565526
0.30078444
0.34293804
0.38113916
0.41488162
0.44534218
0.4747063
0.504884
0.5363228
0.56751204
0.5953715
0.6162503
0.6270201
0.62589717
0.6129418
0.590285
0.5620155
0.5335949
0.5107702
0.4981876
0.49821338
0.51055574
0.5329206
0.56232995
0.5963607
0.6336091
0.67308265
0.7129025
0.749334
0.7771475
0.79151314
0.7906442
0.7778569
0.76179427
0.7541939
0.76556635
0.8001207
0.85189515
0.9041337
0.9331881
0.9165035
0.842135
0.71578217
0.561352
0.41320056
0.30236852
0.24339738
0.22928713
0.23779391
0.2447797
0.23578759
0.20968656
0.17501995
0.14364545
0.12526703
0.124108836
0.13804194
0.16023885
0.18261717
0.19927143
0.20791246
0.2085697
0.20089543
0.18282229
0.15248872
0.11230981
0.07128522
0.04218292
0.034431737
0.0476572
0.0706521
0.086456396
0.080206834
0.045441587
-0.013768206
-0.08497493
-0.15213542
-0.2010798
-0.22433195
-0.22404304
-0.21169779
-0.20468591
-0.22216642
-0.28269547
-0.40307185
-0.5953201
-0.86019474
-1.1802579
-1.5187688
-1.8282166
-2.0655851
-2.2064273
-2.2508397
-2.2197587
-2.1449552
-2.0579214
-1.9816834
-1.9272662
-1.8945695
-1.8762124
-1.8624102
-1.8451303
-1.8203919
-1.7883197
-1.7514333
-1.7124742
-1.6731675
-1.6344223
-1.5973293
-1.5637965
-1.5360203
-1.514947
-1.4988292
-1.4831203
-1.4620676
-1.4311712
-1.3891042
-1.3380531
-1.2823967
-1.2266543
-1.1739715
-1.1258606
-1.0829542
-1.045942
-1.0158981
-0.9937207
-0.97908896
-0.96976125
-0.9618568
-0.9511005
-0.93438256
-0.9107654
-0.88138556
-0.8483931
-0.81370944
-0.77842575
-0.7430858
-0.7084063
-0.6757128
-0.64664435
-0.62228554
-0.6023822
-0.58527607
-0.56866974
-0.550748
-0.53096557
-0.51004434
-0.48923278
-0.469361
-0.45033953
-0.43139905
-0.41183153
-0.39166656
-0.37178516
-0.35337684
-0.33712745
-0.32273737
-0.30912268
-0.29514688
-0.2803612
-0.26524115
-0.25076318
-0.23763654
-0.22575541
-0.21426637
-0.20218547
-0.18911175
-0.17552981
-0.1624851
-0.15085907
-0.14076234
-0.13147776
-0.1219832
-0.11167555
-0.10079155
-0.09024086
-0.08097974
-0.07337949
-0.06703878
-0.061153594
-0.055153634
-0.049137246
-0.043792404
-0.039866712
-0.037584506
-0.03645346
-0.035611637
-0.034461163
-0.033119712
-0.03234199
-0.032933295
-0.035046753
-0.037857395
-0.03985167
-0.039543785
-0.036144167
-0.029758591
-0.021044144
-0.010642516
0.001138291
0.014139736
0.027834425
0.040946666
0.051646773
0.058396675
0.061072677
0.061724834
0.064425796
0.074078836
0.09458155
0.12712336
0.16943382
0.2164249
0.26201358
0.30130386
0.33210373
0.35510415
0.37276915
0.38764808
0.40103373
0.41256782
0.42080605
0.4242837
0.42249078
0.41634473
0.40805307
0.40050942
0.39648238
0.397845
0.40503258
0.41685796
0.43076217
0.4434893
0.45202315
0.4544577
0.4504236
0.4408737
0.42738545
0.41142663
0.39402664
0.37597394
0.3582537
0.34226054
0.32951263
0.3210017
0.31662187
0.31509903
0.31452417
0.313205
0.3103512
0.30621976
0.30168688
0.29755905
0.29407248
0.2908722
0.28741947
0.28347975
0.279304
0.27536184
0.27183935
0.26831293
0.26389626
0.25781074
0.24999458
0.24129851
0.23308209
0.22644426
0.22159596
0.21780196
0.21393256
0.20924154
0.20382966
0.1984799
0.19400162
0.1905723
0.1875619
0.18397184
0.17917243
0.17340006
0.16764073
0.16296579
0.15978475
0.15755053
0.15513827
0.15164109
0.14702158
0.1421501
0.13819183
0.13577238
0.13451901
0.13331446
0.1310932
0.12761685
0.12366802
0.12051013
0.11898791
0.118911415
0.11917413
0.11853533
0.11651681
0.11376903
0.11162959
0.111174956
0.112439826
0.11437194
0.11557094
0.11529572
0.11401911
0.11311717
0.11389691
0.116649985
0.12041767
0.12365278
0.12532218
0.12566455
0.1260468
0.12799993
0.13211228
0.13757773
0.1427405
0.14626698
0.14811422
0.14958917
0.1524319
0.15756232
0.16439006
0.1712009
0.17636618
0.17952266
0.1818676
0.18532982
0.19118747
0.19912092
0.2073988
0.21409287
0.21847302
0.22157927
0.22553189
0.23204243
0.24118105
0.25129595
0.26016876
0.26660183
0.2713036
0.2764126
0.2839722
0.2944386
0.30630696
0.31715095
0.32535535
0.3312999
0.33711255
0.3451245
0.35611495
0.36862218
0.37985858
0.3876244
0.39187706
0.39481527
0.39936805
0.4071268
0.41718826
0.4267505
0.43307066
0.43541637
0.43562445
0.43685386
0.4414241
0.44931605
0.45845166
0.46658665
0.47345492
0.4815386
0.49473023
0.51563025
0.54325527
0.5727549
0.5974554
0.6120452
0.6150115
0.6089916
0.5991231
0.5906759
0.5873365
0.59051734
0.5989626
0.60777575
0.6070661
0.5818583
0.5152554
0.39520472
0.22232671
0.014278011
-0.19707176
-0.3757187
-0.49454242
-0.5448088
-0.53747594
-0.49620748
-0.44635984
-0.40570778
-0.3808187
-0.3693452
-0.36541083
-0.36432913
-0.36423513
-0.3646549
-0.36401823
-0.35856384
-0.34381536
-0.31766325
-0.2826162
-0.24517392
-0.21230727
-0.18722834
-0.16738887
-0.14629856
-0.118089736
-0.08168805
-0.0416242
-0.0048798174
0.024017211
0.046129573
0.06712241
0.09273349
0.123942845
0.155409
0.17843725
0.18653029
0.17971511
0.16462304
0.15028964
0.14278719
0.14270242
0.1473496
0.15600066
0.17384656
0.21069063
0.27367967
0.357845
0.4407866
0.48644474
0.45821944
0.33641642
0.13196023
-0.110938914
-0.32621288
-0.44848296
-0.4383184
-0.29914004
-0.07648369
0.1624989
0.36027518
0.4931221
0.57310486
0.6280586
0.67600983
0.7127779
0.71869004
0.6756952
0.5816711
0.45384824
0.32065752
0.20686048
0.120320015
0.04897652
-0.028689738
-0.12551855
-0.23175567
-0.3148407
-0.33361942
-0.25945616
-0.09312697
0.13175982
0.36101097
0.5409039
0.63643616
0.6384409
0.5594453
0.42436
0.26218113
0.10064278
-0.03785584
-0.14060926
-0.2080502
-0.25312644
-0.29490367
-0.34877825
-0.41869754
-0.4958925
-0.5648661
-0.6136702
-0.6432528
-0.6701444
-0.71901613
-0.8073374
-0.930687
-1.0586363
-1.1451617
-1.1489954
-1.0544007
-0.8825428
-0.68637747
-0.52846634
-0.45084545
-0.45327687
-0.49401227
-0.51498234
-0.4782614
-0.39237195
-0.3113003
-0.3048268
-0.4173217
-0.640732
-0.9183347
-1.1748397
-1.3516202
-1.4255029
-1.4040884
-1.3074101
-1.1523659
-0.94977254
-0.7115432
-0.45775196
-0.21527095
-0.008424632
0.1501459
0.26043215
0.3277035
0.35411382
0.33612037
0.26814944
0.14818883
-0.018519552
-0.21885625
-0.43404076
-0.6438591
-0.83093023
-0.98255616
-1.0893754
-1.1424361
-1.13109
-1.0434257
-0.8702309
-0.6123623
-0.2886106
0.061956722
0.38828266
0.6444408
0.8061159
0.876648
0.88080937
0.85247123
0.82306683
0.81347376
0.8294075
0.86120355
0.8891994
0.89358306
0.8645612
0.80794936
0.7434625
0.69651276
0.6870169
0.71935564
0.7766127
0.8210628
0.80237037
0.67405283
0.4157264
0.05356701
-0.33267322
-0.6261233
-0.7127945
-0.5305886
-0.10310543
0.4620525
1.0133119
1.4153363
1.5999426
1.5836666
1.4464726
1.2866939
1.1776378
1.1457225
1.1744308
1.2249553
1.2600613
1.260547
1.2292382
1.1833656
1.1411983
1.1109834
1.0880146
1.0601578
1.0170642
0.95677394
0.8859533
0.81456274
0.7492975
0.6904576
0.6339834
0.5765477
0.5196176
0.46943355
0.4329276
0.4125445
0.40372005
0.39687696
0.38262293
0.35668305
0.32138687
0.28295404
0.24670824
0.213695
0.18100028
0.14525293
0.10647616
0.06929281
0.040496964
0.02468302
0.021056017
0.02369671
0.02507441
0.020350406
0.009580716
-0.0035075427
-0.015088458
-0.024491118
-0.03478771
-0.05036039
-0.07329447
-0.1012801
-0.12862422
-0.14975864
-0.16282082
-0.17078424
-0.1793357
-0.19298995
-0.21213645
-0.23300943
-0.25050208
-0.26177087
-0.2680784
-0.27364725
-0.28245765
-0.29534596
-0.30947363
-0.32049742
-0.32583416
-0.32664344
-0.32709795
-0.3314748
-0.34115246
-0.35364157
-0.36432326
-0.3696558
-0.36958283
-0.3674624
-0.3676064
-0.37220538
-0.37981367
-0.3864391
-0.38843033
-0.38508976
-0.37915397
-0.37482014
-0.3747472
-0.37817183
-0.38146812
-0.38073373
-0.37454945
-0.36494455
-0.35589308
-0.35043183
-0.34846458
-0.34681675
-0.34149688
-0.33054963
-0.31546408
-0.30013117
-0.28809068
-0.28002527
-0.27328187
-0.26376206
-0.2488448
-0.22927399
-0.20867942
-0.19108023
-0.17814732
-0.1681624
-0.15739533
-0.14289552
-0.1246864
-0.10578092
-0.09000003
-0.07916048
-0.071666315
-0.063544065
-0.051212806
-0.03402792
-0.014779952
0.002226704
0.0141679095
0.02164585
0.02820602
0.037772838
0.05183266
0.06837088
0.08331694
0.09345104
0.09866307
0.10190877
0.10687198
0.11502131
0.12423576
0.13009983
0.12906475
0.121267065
0.11091344
0.10375231
0.103162296
0.1074152
0.11000652
0.10300338
0.08140008
0.045796372
0.0017815555
-0.043495703
-0.0853462
-0.123638496
-0.16180144
-0.20362432
-0.25016078
-0.29882386
-0.34506887
-0.3851253
-0.4175088
-0.44215986
-0.4582049
-0.4627118
-0.4521439
-0.42596188
-0.38973945
-0.35483798
-0.33352157
-0.33142468
-0.34165776
-0.3448702
-0.3169062
-0.2414502
-0.12138743
0.018040113
0.13744445
0.19965832
0.18632497
0.10662164
-0.006154379
-0.10897934
-0.1683109
-0.17515343
-0.14830227
-0.12378713
-0.13602899
-0.20109195
-0.31127408
-0.44318
-0.5726072
-0.6853712
-0.7771433
-0.844795
-0.87919486
-0.86829406
-0.809736
-0.72206223
-0.64243305
-0.60887533
-0.638283
-0.7157753
-0.8024622
-0.8556025
-0.84872097
-0.78159297
-0.67634076
-0.56283385
-0.46227714
-0.37888107
-0.30367747
-0.22550292
-0.13959004
-0.048025943
0.04579821
0.14229959
0.24574709
0.3592204
0.4777716
0.58371764
0.6469902
0.6321548
0.51204044
0.28486025
-0.012478405
-0.30439067
-0.49572054
-0.5055039
-0.29998818
0.09340075
0.59978604
1.1297472
1.6106086
1.9978787
2.26418
2.379154
2.2991357
1.9779694
1.39569
0.58779305
-0.34693143
-1.2712845
-2.0563312
-2.6221492
-2.9491513
-3.05844
-2.9804409
-2.735511
-2.3381648
-1.8181983
-1.2393543
-0.6970757
-0.29125562
-0.087970525
-0.09266069
-0.25006112
-0.46977523
-0.6627431
-0.7708602
-0.7790688
-0.70970947
-0.6059468
-0.5125151
-0.4601394
-0.4574946
-0.49211502
-0.5389202
-0.5723773
-0.5769965
-0.55184263
-0.5077711
-0.4595907
-0.41754153
-0.38241544
-0.34646633
-0.2991379
-0.23439276
-0.15617782
-0.07973043
-0.027831355
-0.022504078
-0.07453047
-0.17532943
-0.29668337
-0.40123096
-0.4600234
-0.4666962
-0.43772012
-0.39736438
-0.35803404
-0.3109091
-0.23420866
-0.11362328
0.038863197
0.18147793
0.26045367
0.24191599
0.1389459
0.014860652
-0.042403758
0.03686884
0.26399693
0.5731526
0.8362133
0.91111594
0.70652115
0.23257093
-0.39033332
-0.97363424
-1.3363264
-1.3787372
-1.1193084
-0.6786446
-0.2221634
0.10822446
0.24178135
0.1893696
0.02035793
-0.17649113
-0.32872444
-0.4003067
-0.3936059
-0.33760747
-0.2698133
-0.21966553
-0.19927828
-0.20307262
-0.21400017
-0.21294643
-0.18862969
-0.14500393
-0.102332674
-0.089925356
-0.13311914
-0.24058785
-0.39789385
-0.5706178
-0.7172079
-0.8075589
-0.8384906
-0.8358374
-0.83921033
-0.8772088
-0.94839334
-1.0198461
-1.0441773
-0.9859007
-0.84357953
-0.6556418
-0.4856352
-0.3942674
-0.4135771
-0.5367161
-0.7261387
-0.9316958
-1.1066636
-1.2152983
-1.2337807
-1.1505444
-0.96996725
-0.71763533
-0.44041675
-0.19515659
-0.027277263
0.04989857
0.061052386
0.05345703
0.067758255
0.113094985
0.16333815
0.17715338
0.1273819
0.019086845
-0.11393608
-0.2277326
-0.28774613
-0.27996773
-0.21254168
-0.110433236
-0.005410422
0.075998634
0.12135497
0.13234475
0.115874566
0.073950164
0.002030119
-0.101613745
-0.2228912
-0.32613885
-0.36164528
-0.284254
-0.074302785
0.25006977
0.6363896
1.0152973
1.3220527
1.5114592
1.5625458
1.477225
1.2793369
1.016341
0.7597444
0.5972887
0.61294746
0.85888696
1.3313384
1.9633105
2.6391888
3.2248304
3.6002638
3.684142
3.445622
2.9046893
2.124537
1.2000499
0.24474166
-0.62430763
-1.3045393
-1.7270066
-1.8709834
-1.7682469
-1.4936873
-1.1427486
-0.8014001
-0.51983947
-0.30241364
-0.11963248
0.063762955
0.26049778
0.44922322
0.587538
0.642226
0.6177284
0.5639575
0.55656594
0.6590754
0.88749534
1.198275
1.508597
1.7390531
1.8537613
1.8737409
1.8572791
1.863016
1.9204125
2.0227182
2.1401598
2.2403522
2.3036947
2.3283944
2.3261673
2.313125
2.3011808
2.2941263
2.2896314
2.2848842
2.2813313
2.2847219
2.3002942
2.3268788
2.354699
2.3689141
2.3569274
2.3151288
2.2511501
2.180176
2.117105
2.0688462
2.0313463
1.9935861
1.9468327
1.8939128
1.852173
1.8464236
1.8941636
1.991677
2.1109622
2.2110343
2.256963
2.234646
2.1533167
2.0368671
1.9113508
1.7958648
1.6996831
1.624205
1.5665045
1.5220003
1.4856107
1.4521517
1.4169064
1.3765584
1.3299954
1.2784148
1.2245567
1.171406
1.1210316
1.0741353
1.0303867
0.98911756
0.94982535
0.91220915
0.87590533
0.8403716
0.8052432
0.7709844
0.7392306
0.71228623
0.6918111
0.6773686
0.66579306
0.65197283
0.6307566
0.5988394
0.5553613
0.5007523
0.434611
0.35430014
0.25582924
0.13735202
0.0038727445
-0.1294309
-0.23779291
-0.29256433
-0.2711289
-0.1677714
-0.00053366757
0.19062944
0.35570928
0.4523422
0.46115196
0.39127654
0.27382544
0.14726329
0.04231975
-0.026774658
-0.06218977
-0.07581383
-0.08085065
-0.08603762
-0.09434393
-0.10541733
-0.1195461
-0.14066254
-0.17663205
-0.23645197
-0.3256311
-0.44222942
-0.575976
-0.7112394
-0.83227175
-0.9278237
-0.9929353
-1.0276917
-1.0344057
-1.0151671
-0.97112143
-0.90370005
-0.8168649
-0.7187576
-0.62134486
-0.5377364
-0.47827137
-0.44732058
-0.4424228
-0.45607308
-0.4791253
-0.50418276
-0.5276951
-0.5503035
-0.5757109
-0.608735
-0.65325326
-0.71062505
-0.7789778
-0.85348326
-0.92746776
-0.9939696
-1.0472778
-1.0840818
-1.1040585
-1.1098826
-1.1066893
-1.1009936
-1.0991547
-1.105744
-1.1224205
-1.147849
-1.1787182
-1.2113249
-1.2428943
-1.2720581
-1.298508
-1.3223295
-1.3435769
-1.3623011
-1.3788333
-1.3939449
-1.4086412
-1.4236649
-1.4390298
-1.453911
-1.4670029
-1.4771665
-1.4840119
-1.4880968
-1.4906502
-1.4930073
-1.4960899
-1.5002066
-1.5052302
-1.5109686
-1.517434
-1.5248084
-1.5331444
-1.5420526
-1.550658
-1.5579249
-1.5631808
-1.5664968
-1.5686501
-1.5706648
-1.5732083
-1.5762197
-1.5789951
-1.5806639
-1.5807357
-1.5793649
-1.5771793
-1.574809
-1.5724497
-1.5697576
-1.5661409
-1.5612383
-1.5552396
-1.5488114
-1.542668
-1.5370723
-1.5316186
-1.5254618
-1.5178598
-1.5086669
-1.498438
-1.4880606
-1.4781545
-1.4686476
-1.4588242
-1.4478261
-1.4352659
-1.4215193
-1.4074862
-1.3939726
-1.3811188
-1.3682793
-1.3544588
-1.3390088
-1.3221021
-1.3046384
-1.2876328
-1.2715026
-1.2557545
-1.2393115
-1.2212665
-1.2015392
-1.1809636
-1.1607281
-1.1415428
-1.1231203
-1.1043522
-1.0840814
-1.061935
-1.0386254
-1.0154878
-0.9935583
-0.9728348
-0.9522559
-0.9304367
-0.9066565
-0.8813959
-0.8560279
-0.83186114
-0.8091997
-0.7870984
-0.76401377
-0.73890495
-0.7119988
-0.68465376
-0.65838915
-0.6337504
-0.60982674
-0.58480793
-0.5572244
-0.52700835
-0.49561104
-0.46505573
-0.43654966
-0.40960947
-0.38233027
-0.3526435
-0.31971934
-0.28457934
-0.24954599
-0.21696407
-0.18812037
-0.16312295
-0.14177176
-0.12468883
-0.1137511
-0.11135368
-0.11889226
-0.13551229
-0.15815417
-0.1831556
-0.20862137
-0.23615728
-0.27080655
-0.31895506
-0.38501835
-0.46830186
-0.5612821
-0.6499287
-0.7161185
-0.7419559
-0.71563727
-0.6378699
-0.5266357
-0.41704723
-0.3536742
-0.37604314
-0.502792
-0.72252923
-0.9966015
-1.27198
-1.4968454
-1.631625
-1.6532487
-1.5555129
-1.3497261
-1.0666599
-0.75610846
-0.47860324
-0.2879973
-0.21142237
-0.23769665
-0.32172173
-0.40311494
-0.42942837
-0.3729478
-0.23494473
-0.038285196
0.18570903
0.40917853
0.6137377
0.7897141
0.9311894
1.0311284
1.0803187
1.071303
1.0051837
0.89688253
0.7745852
0.6719671
0.6161514
0.6175641
0.66733783
0.7435467
0.82236624
0.8879484
0.93656075
0.9744717
1.0122758
1.0592216
1.1198795
1.1935116
1.2750949
1.3566997
1.4286239
1.480548
1.5032735
1.4910896
1.4439771
1.3684064
1.2758518
1.1792274
1.0886858
1.0088161
0.9386708
0.87442297
0.81278425
0.7527907
0.6947306
0.6371998
0.57495564
0.499995
0.4060902
0.29433066
0.17588122
0.06914602
-0.0086240135
-0.052055083
-0.07562573
-0.11411855
-0.21305886
-0.41025534
-0.71367836
-1.0844886
-1.435438
-1.6517252
-1.631971
-1.3339701
-0.8018081
-0.15640174
0.4497129
0.8918701
1.1176511
1.1567618
1.0965786
1.0393515
1.0616565
1.1909112
1.4033432
1.6389754
1.8251984
1.9007566
1.8340176
1.6314874
1.3344165
1.0039301
0.69925034
0.45795935
0.28794348
0.17506881
0.101490945
0.063025974
0.074537896
0.15947154
0.32942468
0.5665775
0.82136106
1.0290502
1.1369663
1.1272513
1.023461
0.8790047
0.75441146
0.69423336
0.7129564
0.7943139
0.90235883
0.9982403
1.0554212
1.067769
1.0483012
1.0202149
1.0049654
1.0131345
1.0419059
1.0791717
1.1109989
1.1282662
1.1297222
1.1210088
1.1109446
1.1071944
1.1134455
1.129293
1.152416
1.1812133
1.2158953
1.2572732
1.3042578
1.3520927
1.3928797
1.4183596
1.4233066
1.4074316
1.3747134
1.3308288
1.2805154
1.2264642
1.170003
1.1125083
1.0561136
1.0030605
0.9542672
0.90840465
0.86246425
0.8137107
0.76185596
0.7099944
0.66353947
0.6276603
0.6046988
0.59308654
0.5883556
0.5855643
0.5816557
0.5764057
0.5715968
0.569196
0.5698752
0.57283497
0.5768901
0.5818671
0.58917713
0.6010904
0.6192313
0.6433955
0.6715279
0.70082885
0.72914004
0.7556029
0.7801763
0.8024914
0.82102597
0.83333755
0.83730316
0.83254063
0.8209776
0.806046
0.790888
0.7766533
0.7619621
0.7438951
0.71990263
0.6894577
0.6544737
0.6183384
0.58429253
0.5542156
0.5284797
0.5067174
0.4887174
0.4746591
0.46451163
0.45716977
0.45018384
0.4405246
0.42601848
0.40651143
0.38393098
0.3611481
0.34035975
0.32202458
0.30497518
0.28752035
0.2687148
0.2489299
0.22940889
0.21121891
0.19441204
0.17800854
0.16079237
0.14231382
0.123346806
0.10544545
0.089901246
0.07683857
0.06509322
0.052966055
0.039328706
0.024313863
0.009119919
-0.004909738
-0.017261263
-0.028581927
-0.04014425
-0.052844122
-0.06646742
-0.07976336
-0.09127801
-0.10035346
-0.10758589
-0.11443078
-0.122252524
-0.13150144
-0.1415934
-0.15154815
-0.16089045
-0.1701346
-0.18048471
-0.1929597
-0.20758091
-0.22323348
-0.23833995
-0.25189555
-0.26413918
-0.27637652
-0.2900625
-0.30577108
-0.32276538
-0.33945978
-0.3544388
-0.36730978
-0.37880334
-0.39008534
-0.4018081
-0.41361132
-0.4244417
-0.4334464
-0.44075838
-0.44756463
-0.45537236
-0.4649797
-0.47589058
-0.48661172
-0.49564344
-0.5024728
-0.5078746
-0.5133148
-0.51988375
-0.52751255
-0.53502613
-0.54098344
-0.54468906
-0.5466448
-0.5481257
-0.5502041
-0.55294496
-0.55537164
-0.5562255
-0.5549306
-0.55199933
-0.54853034
-0.5451563
-0.54128903
-0.5353951
-0.52632666
-0.5148658
-0.5042536
-0.4989195
-0.50172395
-0.5111732
-0.5205494
-0.52029294
-0.5033637
-0.47139704
-0.43826395
-0.4280028
-0.46631166
-0.5682762
-0.72804534
-0.9165481
-1.0899444
-1.2058126
-1.239669
-1.1941228
-1.096718
-0.9878898
-0.9047918
-0.86821055
-0.8778927
-0.91730565
-0.9643766
-1.0024003
-1.026072
-1.0406882
-1.056108
-1.079333
-1.1096854
-1.1387908
-1.1549244
-1.1490958
-1.119514
-1.0720804
-1.0167722
-0.96199894
-0.910061
-0.8562254
-0.7920762
-0.71163434
-0.6172676
-0.5223065
-0.44861367
-0.41951787
-0.45059413
-0.5419684
-0.67566496
-0.81982684
-0.9387974
-1.0052536
-1.0093827
-0.9612448
-0.88529855
-0.8093103
-0.7523656
-0.71748585
-0.6925713
-0.659258
-0.6048102
-0.53023213
-0.4499455
-0.38341826
-0.34378582
-0.32997152
-0.32664108
-0.31213355
-0.27050146
-0.20167018
-0.12432013
-0.06929288
-0.06597396
-0.12805238
-0.24595611
-0.39014357
-0.5237531
-0.61812824
-0.6634472
-0.6697522
-0.65896726
-0.6527585
-0.66226524
-0.6838883
-0.70204
-0.69682735
-0.65310466
-0.56730086
-0.44950992
-0.3200578
-0.20176256
-0.11083521
-0.05015005
-0.008005373
0.036362182
0.101875044
0.1933775
0.29374775
0.36530945
0.36191192
0.24786082
0.015772153
-0.30497935
-0.6535101
-0.9542344
-1.1380153
-1.1596603
-1.0070974
-0.7019619
-0.29367152
0.15110247
0.56231534
0.88168883
1.0751456
1.1381495
1.0921355
0.9743096
0.8256385
0.6812283
0.56467026
0.4859171
0.44216534
0.42198038
0.41258025
0.4083326
0.41657227
0.45676145
0.55157506
0.7126913
0.92767924
1.1552359
1.3331591
1.3978063
1.3080598
1.0640291
0.71237594
0.33531514
0.026610125
-0.13721561
-0.120452486
0.061422415
0.3476486
0.65181
0.8883825
0.9975541
0.96048236
0.80041206
0.57004505
0.33074617
0.1323328
0.0012007433
-0.06038915
-0.06671499
-0.038387433
0.0056685996
0.052093245
0.0933556
0.12598832
0.14837363
0.15927942
0.15781577
0.14471425
0.12394867
0.10321951
0.09222621
0.09894676
0.1256432
0.1670006
0.21200845
0.24916416
0.27254254
0.2855566
0.30023402
0.331852
0.39077553
0.47464508
0.56442297
0.6271159
0.6260949
0.5369199
0.3631445
0.14422926
-0.051377717
-0.1492551
-0.10056705
0.09218407
0.3691748
0.6324321
0.7829833
0.7593038
0.5595964
0.2388778
-0.11561576
-0.41765147
-0.608756
-0.6688058
-0.6099172
-0.46106222
-0.25372142
-0.015733669
0.22629717
0.44174644
0.59527457
0.6546473
0.604672
0.45947856
0.26442665
0.083573945
-0.02327561
-0.023192855
0.07908541
0.24740984
0.4331716
0.59590876
0.7148285
0.78711915
0.8171258
0.80518335
0.7439534
0.62470067
0.44940606
0.2405691
0.041201927
-0.097420916
-0.13581145
-0.064650066
0.08818285
0.26650012
0.40724117
0.46460587
0.4258588
0.3124516
0.1675614
0.03695772
-0.048255052
-0.08062416
-0.07472302
-0.056902338
-0.051831868
-0.07225831
-0.1159093
-0.168858
-0.21152402
-0.22401361
-0.19017026
-0.101410635
0.039194256
0.21406232
0.39225793
0.5366513
0.61596996
0.6170317
0.5512236
0.45182508
0.36326605
0.32669738
0.36689016
0.48434553
0.6547769
0.83603245
0.9800673
1.0457052
1.0080562
0.86268824
0.62527317
0.32844672
0.016794067
-0.26026183
-0.4576199
-0.54402655
-0.50901365
-0.36482945
-0.14293543
0.11338753
0.3578922
0.5494848
0.6581723
0.66813046
0.5778629
0.39820924
0.14963481
-0.13988413
-0.43630266
-0.7017123
-0.89899874
-0.99907655
-0.9886262
-0.87513787
-0.68672144
-0.46607634
-0.26025844
-0.10939797
-0.037630573
-0.048387185
-0.12475757
-0.23451142
-0.3383999
-0.3995428
-0.39160445
-0.3042832
-0.1455345
0.059883032
0.27602166
0.4651502
0.59859616
0.6648894
0.67132205
0.63785523
0.5862203
0.5296069
0.46786314
0.39004076
0.28243503
0.13804732
-0.036690418
-0.22064017
-0.38275242
-0.4913887
-0.5248213
-0.4787978
-0.36810702
-0.22176889
-0.07428237
0.04345544
0.11080236
0.120615445
0.07938776
0.004927748
-0.07780884
-0.1420587
-0.16502064
-0.13339159
-0.047931317
0.07416109
0.20070909
0.29099178
0.30643317
0.2225166
0.03771258
-0.22393136
-0.51754844
-0.7880774
-0.98365706
-1.0682812
-1.0307174
-0.8875734
-0.67937005
-0.45991987
-0.28152472
-0.18063323
-0.16896982
-0.23306996
-0.34183186
-0.45885146
-0.5548566
-0.61583
-0.6444932
-0.6557754
-0.6688159
-0.6980967
-0.7457097
-0.79695225
-0.82182306
-0.7838081
-0.6541007
-0.42584983
-0.12178429
0.20899862
0.5042656
0.70644826
0.7781199
0.71044344
0.52349544
0.25983146
-0.026658256
-0.2843939
-0.4772253
-0.59291285
-0.6432056
-0.6546471
-0.6536629
-0.6527555
-0.6445164
-0.6064453
-0.51418114
-0.35651585
-0.14465144
0.088926435
0.30134413
0.45459095
0.52790314
0.522023
0.45440602
0.34861872
0.2232288
0.085011534
-0.0708792
-0.25393605
-0.46734443
-0.69773257
-0.9106699
-1.055473
-1.0797645
-0.9501788
-0.67178106
-0.29701
0.0828482
0.36402377
0.46604493
0.36212972
0.08986695
-0.26371157
-0.5961626
-0.8269441
-0.92158246
-0.89442647
-0.7929669
-0.6741289
-0.58347803
-0.5437867
-0.55393064
-0.59551626
-0.64337957
-0.67615914
-0.68378735
-0.6699041
-0.6489453
-0.6395273
-0.6568639
-0.70678395
-0.782838
-0.86681217
-0.9323314
-0.95110106
-0.9011364
-0.77545416
-0.58831495
-0.37544248
-0.18604736
-0.06783831
-0.04976047
-0.12903303
-0.26832843
-0.40571833
-0.475035
-0.42946216
-0.25915468
0.004103025
0.29697207
0.54550594
0.6891843
0.6992731
0.5852484
0.38815603
0.16502999
-0.02888317
-0.15429536
-0.19571166
-0.16296668
-0.0876271
-0.015354404
0.0048367227
-0.066811256
-0.24831669
-0.52667904
-0.8557109
-1.1642784
-1.3751498
-1.4296364
-1.3089075
-1.0425524
-0.6998231
-0.36674026
-0.11845363
0.0024359915
-0.0054715215
-0.10800896
-0.25161391
-0.38338396
-0.46780655
-0.49486336
-0.4778952
-0.4433174
-0.4165624
-0.4094357
-0.41371748
-0.4039796
-0.34901
-0.22715303
-0.038517486
0.19195153
0.4222758
0.6084869
0.7197686
0.74699646
0.701964
0.60937804
0.49632895
0.38345292
0.27981842
0.18176861
0.075415194
-0.05755017
-0.23169635
-0.44958195
-0.69642544
-0.9401231
-1.137038
-1.2418203
-1.2183402
-1.0489266
-0.7400526
-0.3236187
0.14651403
0.60306585
0.97871447
1.2220246
1.3109409
1.2580535
1.104707
0.906241
0.7147038
0.56560636
0.47205678
0.425804
0.40288842
0.37190533
0.30366063
0.18083353
0.005311035
-0.19954349
-0.39325613
-0.5284509
-0.56398606
-0.47734538
-0.27312225
0.014677815
0.3279711
0.59773016
0.76273113
0.7888105
0.6816378
0.48686963
0.2758119
0.12106422
0.071804166
0.13903509
0.29645067
0.49522716
0.6850963
0.83218896
0.92675376
0.97937334
1.0097935
1.0350052
1.061831
1.085725
1.0944431
1.0739944
1.0144342
0.9137264
0.7786595
0.6226714
0.46143436
0.30787614
0.16856216
0.042865817
-0.0747544
-0.19037099
-0.30606833
-0.41738436
-0.5139563
-0.5831868
-0.6154482
-0.6087549
-0.57108235
-0.5193342
-0.47494492
-0.45699087
-0.47447044
-0.52019423
-0.56920224
-0.5840141
-0.5266893
-0.37411407
-0.13004112
0.17251098
0.48095077
0.74127245
0.916441
0.9967023
0.99813867
0.95201343
0.8913307
0.84069943
0.81220305
0.8063899
0.8158626
0.82936394
0.8354079
0.8252268
0.79486775
0.7461047
0.68585926
0.62409514
0.5704867
0.53046805
0.5016124
0.4716883
0.41992092
0.32247043
0.1615764
-0.064462304
-0.33512726
-0.60976416
-0.8392137
-0.98327976
-1.026225
-0.9822905
-0.88778496
-0.78330857
-0.6951045
-0.6251071
-0.5544923
-0.45811182
-0.3213976
-0.15042216
0.029891385
0.18759045
0.29840317
0.35532165
0.36873186
0.3583792
0.34252122
0.33014527
0.31956467
0.30308753
0.27470687
0.23683687
0.20297292
0.19509077
0.23663154
0.34332564
0.51475203
0.72962517
0.9473769
1.1173122
1.1941817
1.1557785
1.0154926
0.8227026
0.64781773
0.55575335
0.578212
0.6973549
0.84953004
0.9493529
0.9253997
0.7529062
0.4688407
0.1612429
-0.06441573
-0.12868208
-0.013238908
0.22748902
0.48370078
0.6298208
0.5705007
0.27530274
-0.2100585
-0.77847654
-1.2956433
-1.6412436
-1.7433344
-1.5953741
-1.2521249
-0.80807245
-0.3671254
-0.013721548
0.2065763
0.29298487
0.28228053
0.23212802
0.20044257
0.22696565
0.32278433
0.47114572
0.6384829
0.78989327
0.90130126
0.96286446
0.9736685
0.9330023
0.8352551
0.6728415
0.44623613
0.17520885
-0.09660003
-0.3093035
-0.40628505
-0.35847113
-0.18186969
0.062039826
0.28637776
0.41241312
0.40163544
0.2709069
0.08329019
-0.08065092
-0.15685847
-0.12124769
0.006713747
0.17912492
0.34362748
0.46397373
0.5290811
0.549724
0.54779077
0.5447297
0.55384946
0.577811
0.610082
0.63815826
0.64673066
0.6200761
0.544123
0.40918693
0.21380763
-0.031353507
-0.3018728
-0.5622845
-0.77332693
-0.9014338
-0.9268337
-0.84708756
-0.67498964
-0.43255326
-0.14477962
0.16343363
0.4665194
0.7359397
0.940024
1.0484804
1.0412341
0.9180546
0.7036509
0.44399807
0.19366728
-0.0011840382
-0.11679914
-0.15668851
-0.1457989
-0.11761209
-0.10080083
-0.11123138
-0.15122417
-0.21390186
-0.28878388
-0.3658921
-0.43784538
-0.5008291
-0.555233
-0.6057831
-0.66028464
-0.7263488
-0.8066082
-0.89418787
-0.97072244
-1.0085828
-0.977483
-0.8539322
-0.6306749
-0.3227017
0.033018775
0.38503897
0.6802895
0.8779397
0.95919615
0.9295798
0.81342745
0.64359367
0.45098287
0.25781527
0.076033145
-0.09031942
-0.24111336
-0.3766632
-0.49599227
-0.5971239
-0.67877936
-0.7420934
-0.7907543
-0.8287465
-0.85646206
-0.867463
-0.84849375
-0.7839616
-0.663596
-0.48971987
-0.27992842
-0.06272381
0.13266243
0.28733653
0.39861724
0.4773079
0.5379333
0.5873308
0.6173311
0.6048109
0.51933223
0.33615622
0.0506129
-0.31143215
-0.6922944
-1.0135539
-1.1983333
-1.1982062
-1.0141916
-0.70149326
-0.35336667
-0.06891116
0.08223981
0.0835504
-0.025428656
-0.16609848
-0.24965666
-0.207099
-0.0116179325
0.31203482
0.6935843
1.0377425
1.2541279
1.287631
1.1387402
0.8656355
0.56595534
0.3441689
0.27695444
0.39014098
0.6554876
1.0064993
1.3644243
1.6625122
1.8596348
1.9412433
1.9120437
1.7870411
1.5854121
1.3279227
1.0362971
0.7325904
0.4373005
0.16617317
-0.0728429
-0.28015357
-0.46109006
-0.61941016
-0.7510813
-0.84234107
-0.8741797
-0.8319009
-0.71518874
-0.5430758
-0.35027704
-0.17569537
-0.04817521
0.023695553
0.052803885
0.06521675
0.08641476
0.12859556
0.18485883
0.23254348
0.24356857
0.19678621
0.08730281
-0.070329875
-0.24578369
-0.40217856
-0.50783205
-0.54636383
-0.5212678
-0.45323282
-0.37169045
-0.30445552
-0.26961
-0.27214348
-0.30551484
-0.3563971
-0.41006494
-0.4542777
-0.4806956
-0.48411334
-0.4605594
-0.40556264
-0.31380978
-0.1809743
-0.0075338697
0.19686435
0.4107764
0.602156
0.73420715
0.77500975
0.7084055
0.5424649
0.31166676
0.07037802
-0.1215768
-0.21678828
-0.19501586
-0.069154635
0.11970005
0.31574395
0.46503308
0.5293991
0.49429715
0.36996955
0.18678288
-0.014017986
-0.19224338
-0.3202175
-0.3898174
-0.41213146
-0.40966588
-0.4045102
-0.40794417
-0.41625994
-0.41436568
-0.38485613
-0.31781587
-0.21679193
-0.09875336
0.011080133
0.08666133
0.107861444
0.06497708
-0.03916475
-0.18926038
-0.35993105
-0.52084965
-0.64404637
-0.7112568
-0.7184183
-0.6754561
-0.6016704
-0.5188408
-0.4446688
-0.38849947
-0.35015994
-0.32186598
-0.292501
-0.25289226
-0.20011084
-0.13899754
-0.08045887
-0.037824508
-0.023240801
-0.04516515
-0.10663517
-0.2035521
-0.322976
-0.44254082
-0.53267217
-0.56279826
-0.5110216
-0.3743017
-0.1745675
0.043168817
0.22157937
0.30770847
0.27001005
0.10973356
-0.13782735
-0.41360673
-0.65359956
-0.8092308
-0.8610836
-0.8208818
-0.7221361
-0.604488
-0.49847308
-0.41629103
-0.35130402
-0.28545934
-0.20065275
-0.08849375
0.046002977
0.18787761
0.31997764
0.429918
0.51196957
0.5630089
0.5757175
0.5345392
0.41899526
0.21494341
-0.07085944
-0.40093166
-0.7091423
-0.9167686
-0.9579776
-0.8052711
-0.4843714
-0.07136711
0.32835785
0.61254144
0.71429104
0.62257427
0.3834361
0.08110867
-0.19423425
-0.37941015
-0.45824006
-0.46065664
-0.4427253
-0.4580405
-0.5338086
-0.6611356
-0.8016105
-0.90539527
-0.93239725
-0.86817175
-0.7290164
-0.55499035
-0.39414737
-0.28464374
-0.24190904
-0.25532535
-0.29456168
-0.32226616
-0.30834505
-0.2411399
-0.1317395
-0.009387411
0.0911218
0.14535686
0.15100344
0.12882337
0.11145142
0.12564966
0.17744294
0.24746148
0.2981482
0.2896174
0.19840777
0.03208883
-0.16722177
-0.33418608
-0.40378764
-0.33782157
-0.1422692
0.1331803
0.4139627
0.6294528
0.7387417
0.74233437
0.67586476
0.59034187
0.5291836
0.51276517
0.5361363
0.57796663
0.6136024
0.6251617
0.60519135
0.55419433
0.47475657
0.36618766
0.22336751
0.04132325
-0.17649059
-0.41109365
-0.62698615
-0.7792666
-0.8270297
-0.74852604
-0.55254024
-0.28086534
0.0010047262
0.22350392
0.33635262
0.3259505
0.21853454
0.06696249
-0.07301532
-0.1657199
-0.20697372
-0.21944214
-0.23553742
-0.27727935
-0.34334284
-0.40950978
-0.44177586
-0.41472387
-0.3250741
-0.19329806
-0.053136565
0.064479
0.14425193
0.19015032
0.21954836
0.25231472
0.300925
0.3661174
0.43910202
0.50784886
0.5634095
0.603171
0.6303265
0.6509738
0.67101663
0.69437927
0.722645
0.7551204
0.788252
0.81432277
0.8207412
0.7919098
0.71469
0.5859392
0.41801947
0.23780288
0.0777565
-0.037243884
-0.100271024
-0.1239171
-0.13245586
-0.14977719
-0.19028153
-0.25685608
-0.34493002
-0.44856912
-0.5647223
-0.6933885
-0.8334135
-0.9758431
-1.0987494
-1.1678425
-1.1450438
-1.0030582
-0.73981947
-0.38514453
0.0052001546
0.36651284
0.6458095
0.8170374
0.88522404
0.87972546
0.841148
0.80760187
0.8042989
0.83806884
0.89678174
0.95330095
0.9735998
0.9279213
0.8021463
0.6050074
0.3671758
0.13134634
-0.0630189
-0.19345917
-0.26051274
-0.28385243
-0.2916393
-0.30905545
-0.35107008
-0.42099357
-0.5130217
-0.61583126
-0.7153812
-0.7968872
-0.8469314
-0.85637295
-0.8236927
-0.7575371
-0.6770042
-0.6085912
-0.5795349
-0.6085403
-0.6965928
-0.8219718
-0.9433705
-1.0122421
-0.9908319
-0.8683263
-0.6671029
-0.43530878
-0.22885267
-0.091265395
-0.0404888
-0.06735627
-0.14434446
-0.23887043
-0.3248705
-0.38885358
-0.4298698
-0.45511553
-0.47380993
-0.49194396
-0.5098338
-0.5232004
-0.5269706
-0.5197243
-0.5063408
-0.4972095
-0.50398004
-0.5334983
-0.58262086
-0.6366548
-0.6730742
-0.67002445
-0.61659163
-0.5201783
-0.40681976
-0.3130851
-0.27218634
-0.3000373
-0.38743395
-0.5018586
-0.59811354
-0.6334245
-0.58142376
-0.440499
-0.23421513
-0.0038888918
0.20434761
0.35382426
0.42818555
0.43522245
0.40250885
0.36641508
0.3584801
0.39435986
0.4695274
0.5625699
0.64327973
0.6812427
0.652056
0.5411141
0.34664014
0.082947694
-0.21740326
-0.5055965
-0.7250578
-0.8259027
-0.78136384
-0.600137
-0.32882148
-0.041547563
0.18102376
0.27611816
0.21765219
0.022924133
-0.25440326
-0.54202086
-0.7711928
-0.8958395
-0.902014
-0.8053578
-0.6393148
-0.44037664
-0.23677713
-0.04436117
0.13038288
0.28321776
0.40551165
0.4820421
0.49493903
0.4323274
0.2976747
0.11509009
-0.07273253
-0.21427643
-0.2639176
-0.19679298
-0.01854349
0.23409906
0.50298953
0.7257127
0.85404724
0.8665834
0.77060425
0.5932725
0.36738366
0.11939598
-0.1345111
-0.38377455
-0.61468965
-0.80414253
-0.9207907
-0.9345637
-0.8307776
-0.62199956
-0.35065326
-0.078942105
0.13104534
0.23847021
0.23621832
0.14917158
0.020117044
-0.108921126
-0.2107766
-0.27697918
-0.31160358
-0.32041922
-0.30229333
-0.24782254
-0.14599535
0.0047262684
0.1873706
0.36567208
0.49385238
0.5334491
0.46940294
0.31754977
0.11960288
-0.072586335
-0.21669641
-0.29458672
-0.31519106
-0.30488503
-0.29095915
-0.2867912
-0.285527
-0.26434347
-0.1965224
-0.06545197
0.12600343
0.3552504
0.5887835
0.7951362
0.9550237
1.063977
1.127238
1.1503819
1.1308315
1.0552571
0.9056924
0.6730053
0.3716435
0.047113974
-0.23045354
-0.38726386
-0.37431705
-0.19093195
0.10894297
0.43304712
0.6842042
0.79602045
0.75448084
0.59652203
0.38867822
0.19799514
0.06869924
0.012388808
0.011738466
0.03261114
0.038452398
0.0023945859
-0.08547953
-0.21677484
-0.36914468
-0.5146944
-0.629308
-0.6993608
-0.723457
-0.70915735
-0.6668913
-0.6041825
-0.5226201
-0.4183703
-0.28549805
-0.12054151
0.07338277
0.28438675
0.4923976
0.6726367
0.80126166
0.8615925
0.84871936
0.77039754
0.6434119
0.48678395
0.31515208
0.13596156
-0.04782543
-0.23107538
-0.40017417
-0.53175735
-0.5987217
-0.58147985
-0.4786729
-0.3109792
-0.11523366
0.06832263
0.20917074
0.2941703
0.3276603
0.3257708
0.30858117
0.2934643
0.29138497
0.3061825
0.33580914
0.37440503
0.41457972
0.44964433
0.47545213
0.49126282
0.4991701
0.5022618
0.50241864
0.49895117
0.4888716
0.46871465
0.43703055
0.39643684
0.3544626
0.32301834
0.31676227
0.3506314
0.43642837
0.578151
0.7663791
0.9735428
1.1533345
1.2474514
1.2004039
0.9789991
0.5895065
0.08472182
-0.44403648
-0.8895518
-1.1596377
-1.2060075
-1.0402942
-0.7302848
-0.37663692
-0.0782457
0.10054148
0.14814503
0.10274327
0.030337097
-0.0059073344
0.028464284
0.12873511
0.258901
0.37213504
0.43285763
0.43016276
0.37807453
0.30520862
0.24094751
0.20529915
0.20606609
0.2424162
0.31090882
0.40959394
0.5376374
0.6908583
0.85617435
1.0090121
1.116598
1.147022
1.0805751
0.9182343
0.6834902
0.41705525
0.16704859
-0.021801459
-0.11746643
-0.107383095
-0.0019931674
0.16601269
0.34760275
0.48783886
0.53834414
0.46851283
0.27284804
-0.026945248
-0.38548467
-0.7422805
-1.0335904
-1.2048197
-1.2206186
-1.070637
-0.770163
-0.35619268
0.11957038
0.599086
1.0264966
1.3560263
1.5583785
1.6244197
1.5651677
1.4081097
1.1909559
0.95421934
0.7336728
0.5537285
0.42341724
0.33679056
0.2781641
0.23018909
0.18111205
0.12812442
0.07606339
0.033162724
0.006526265
-0.0006881879
0.010162808
0.034255117
0.06497623
0.09558988
0.120699845
0.13745183
0.14620888
0.15026958
0.1544143
0.16267137
0.17631441
0.1932199
0.2091195
0.22029431
0.2264639
0.23244599
0.24766539
0.28348696
0.34915698
0.4474881
0.5713515
0.7019077
0.80957806
0.8587904
0.8168601
0.6655135
0.4111144
0.08839526
-0.24587134
-0.5284185
-0.7086519
-0.76385367
-0.70482314
-0.57070595
-0.41581276
-0.29337963
-0.24131382
-0.27355188
-0.37861326
-0.5250929
-0.6723889
-0.7835629
-0.836171
-0.82734984
-0.7719234
-0.6954363
-0.6257039
-0.5858694
-0.59006506
-0.6412666
-0.7307273
-0.8390838
-0.9397119
-1.0044442
-1.0106382
-0.947753
-0.821593
-0.6548942
-0.48343697
-0.34746677
-0.2794499
-0.29123837
-0.36567652
-0.45784524
-0.50819933
-0.46434978
-0.3029773
-0.04190469
0.26371357
0.5398093
0.71869415
0.76126873
0.66852295
0.47947025
0.25743786
0.06998074
-0.031004108
-0.023134772
0.082220405
0.24602146
0.415664
0.54229707
0.5953459
0.5693577
0.48161936
0.3628261
0.24526747
0.15269583
0.0942099
0.06284001
0.03887354
-0.0023534007
-0.079554886
-0.19479443
-0.3278211
-0.43961662
-0.48576954
-0.43515676
-0.28561795
-0.068590835
0.16040936
0.341495
0.4312357
0.41560692
0.31098977
0.15542345
-0.0041280035
-0.12338023
-0.16918968
-0.12531568
0.0039618225
0.19315475
0.39925218
0.5701256
0.6560179
0.6212549
0.45348522
0.16850486
-0.1908053
-0.5623636
-0.8789502
-1.085137
-1.1515051
-1.0807163
-0.9032346
-0.66515857
-0.41381732
-0.18658955
-0.005473747
0.12313593
0.2052433
0.25407708
0.28411633
0.3058823
0.32340106
0.33543336
0.33957615
0.33642867
0.33069965
0.3279026
0.32821462
0.32144383
0.28731093
0.20285226
0.054555133
-0.15095147
-0.38454002
-0.60373753
-0.77003604
-0.86576253
-0.90150636
-0.90979564
-0.92767066
-0.9764137
-1.0484351
-1.1084051
-1.1092066
-1.0158585
-0.8258619
-0.57534456
-0.32708064
-0.14564125
-0.0716273
-0.10738137
-0.22047034
-0.3619799
-0.4894383
-0.5827969
-0.6465794
-0.6989199
-0.7545505
-0.81105757
-0.8454135
-0.8224024
-0.7107714
-0.49946603
-0.20663546
0.12225563
0.4260045
0.6440957
0.7321253
0.6718138
0.4738728
0.17454965
-0.17180647
-0.50163686
-0.75094104
-0.863856
-0.8020444
-0.55508846
-0.14920528
0.35107177
0.85277903
1.2554746
1.4767771
1.4736958
1.2536613
0.87368447
0.428641
0.030137958
-0.22149085
-0.26611787
-0.1039306
0.20316614
0.55269736
0.83891916
0.9911402
0.9964145
0.8972339
0.76695085
0.675793
0.663385
0.72884274
0.8399547
0.9538035
1.0368727
1.0750302
1.0708947
1.0333455
0.96714836
0.8688762
0.7306303
0.54854697
0.3307378
0.09981986
-0.111909494
-0.27278262
-0.3629823
-0.38185266
-0.34839356
-0.29477146
-0.25512558
-0.25363332
-0.2964171
-0.37087667
-0.45304793
-0.5195278
-0.55778235
-0.5695147
-0.5660866
-0.5598613
-0.5571592
-0.55621874
-0.5497151
-0.52930355
-0.48988637
-0.43224066
-0.36328068
-0.29386196
-0.23502582
-0.19451106
-0.17538597
-0.17745778
-0.20033017
-0.24573645
-0.31694773
-0.41477147
-0.5320975
-0.6505964
-0.74272066
-0.77953666
-0.74151254
-0.6272301
-0.4554735
-0.25920403
-0.0739496
0.074101135
0.17501152
0.23446201
0.26695326
0.28717038
0.30413786
0.32047635
0.33575523
0.3506432
0.36843383
0.39244258
0.42065793
0.44129112
0.4330897
0.37204373
0.24241959
0.04696497
-0.1893322
-0.42474428
-0.6137064
-0.721413
-0.7336517
-0.65814865
-0.5181241
-0.3423137
-0.15674283
0.01825482
0.1659718
0.26989383
0.31339517
0.28449333
0.18356307
0.029270368
-0.14173386
-0.2829254
-0.35136768
-0.32105464
-0.19059953
0.01717893
0.26210985
0.49606234
0.6717962
0.7505921
0.70933634
0.5468598
0.28753123
-0.020426316
-0.31289893
-0.5228144
-0.59541994
-0.50321245
-0.25758296
0.08695077
0.4405879
0.70014757
0.7806757
0.645653
0.32266966
-0.103197135
-0.51592326
-0.8039634
-0.8913264
-0.7552733
-0.4280276
0.015388626
0.47865793
0.8690942
1.1193775
1.200266
1.121289
0.9206877
0.6497894
0.3584533
0.086169586
-0.14075352
-0.3085897
-0.41489795
-0.46718395
-0.4805465
-0.47356105
-0.46310177
-0.4599164
-0.4665881
-0.47833768
-0.4859193
-0.47936848
-0.4515168
-0.40044162
-0.3300722
-0.24841993
-0.16385604
-0.08122459
-0.00017921868
0.08289561
0.17017129
0.25743693
0.33180875
0.3738229
0.3636817
0.28934774
0.15303889
-0.026550386
-0.21674392
-0.3767943
-0.46587119
-0.45244795
-0.32409194
-0.0952369
0.19068709
0.46798128
0.664784
0.72458386
0.6251119
0.38617206
0.062616155
-0.27404666
-0.55680615
-0.738781
-0.79975176
-0.7450745
-0.60047644
-0.405196
-0.20420338
-0.039885134
0.05551948
0.06495217
-0.011840877
-0.1595705
-0.35056448
-0.54950243
-0.7199434
-0.8320897
-0.8695443
-0.8320696
-0.73288
-0.5919844
-0.42930332
-0.26108938
-0.1007772
0.037485268
0.13597083
0.17416693
0.13430384
0.00997449
-0.1862668
-0.42124176
-0.648265
-0.82128364
-0.9097505
-0.9068781
-0.8275519
-0.6981131
-0.54437095
-0.38408476
-0.2264669
-0.07687013
0.057628483
0.16572183
0.23410012
0.25311545
0.22244607
0.15310164
0.064040914
-0.025193721
-0.101880714
-0.16335636
-0.21422522
-0.25919163
-0.295665
-0.3104689
-0.28292707
-0.19344428
-0.03400408
0.1839778
0.4279328
0.6496486
0.7966435
0.82643944
0.7200591
0.49071258
0.18371603
-0.13460144
-0.39701325
-0.55731654
-0.6044102
-0.56214035
-0.4760005
-0.39417708
-0.3516088
-0.362235
-0.41989455
-0.5050264
-0.5931672
-0.6620041
-0.69558406
-0.6858957
-0.6325433
-0.5409522
-0.41943705
-0.2759062
-0.11544128
0.060141284
0.25045726
0.4532374
0.6611003
0.8601128
1.0311832
1.1541287
1.2130264
1.2008227
1.1214608
0.98881984
0.8229482
0.644911
0.4719015
0.31413472
0.17447184
0.050761484
-0.060172457
-0.15862912
-0.23990545
-0.2949528
-0.31376043
-0.2902693
-0.22674155
-0.13534217
-0.03560904
0.05165342
0.11162568
0.14066695
0.14711727
0.14734203
0.15861371
0.19149013
0.24431665
0.30176422
0.33835116
0.3266949
0.24861823
0.10545008
-0.07715511
-0.25360984
-0.3722917
-0.39437324
-0.30939025
-0.13977066
0.0684188
0.26415294
0.41030073
0.4937639
0.5233456
0.5185322
0.49641544
0.46352345
0.4155005
0.34303564
0.23960969
0.10657953
-0.046630148
-0.20639706
-0.35985738
-0.49792776
-0.61536014
-0.70924044
-0.7781439
-0.82263637
-0.8457312
-0.8518153
-0.84459984
-0.8261924
-0.79841155
-0.7651123
-0.73308724
-0.71003556
-0.7001419
-0.6995406
-0.69449234
-0.6642597
-0.58860874
-0.45730087
-0.2771471
-0.072508186
0.12210537
0.27462882
0.36751074
0.4035389
0.40289885
0.39335692
0.3985001
0.42919594
0.4812669
0.5393336
0.5843128
0.6009415
0.5822391
0.5298839
0.45197326
0.36075872
0.2718165
0.20388505
0.17727146
0.20920728
0.30642515
0.4576453
0.6304755
0.7769649
0.848722
0.81699055
0.68841875
0.5070864
0.3391313
0.24556288
0.25610882
0.3571811
0.49954662
0.6206463
0.6694565
0.6222228
0.48402897
0.2791706
0.038004223
-0.2124953
